Channel_1,Channel_2,Channel_3,Channel_4,Channel_5,Channel_6,Channel_7,Channel_8,Channel_9,Channel_10,Channel_11,Channel_12,Channel_13,Channel_14,Channel_15,Channel_16
38,51,40,63,108,196,47,80,36.0,77.0,36.0,102.0,44.0,194.0,79.0,66.0
37,50,39,60,97,199,45,76,39.0,82.0,40.0,113.0,49.0,195.0,77.0,76.0
34,50,44,57,88,163,39,44,40.0,94.0,42.0,126.0,54.0,187.0,76.0,84.0
35,54,52,68,99,156,34,38,39.0,101.0,45.0,130.0,55.0,160.0,75.0,85.0
38,59,55,71,98,139,32,32,38.0,110.0,49.0,138.0,65.0,152.0,73.0,89.0
34,65,60,83,100,138,29,28,36.0,117.0,49.0,137.0,78.0,97.0,65.0,89.0
35,64,61,86,95,102,25,30,36.0,116.0,47.0,142.0,83.0,81.0,62.0,89.0
40,66,60,92,96,103,28,26,34.0,105.0,46.0,133.0,87.0,88.0,57.0,80.0
39,73,59,88,80,92,27,28,33.0,96.0,49.0,132.0,139.0,99.0,55.0,72.0
36,75,56,86,79,92,25,31,33.0,78.0,53.0,120.0,163.0,109.0,55.0,62.0
35,73,52,81,73,92,28,35,33.0,54.0,58.0,108.0,167.0,112.0,52.0,48.0
32,71,53,77,69,88,28,32,32.0,42.0,70.0,92.0,174.0,116.0,48.0,35.0
27,69,51,71,59,74,25,32,32.0,46.0,111.0,99.0,201.0,126.0,49.0,36.0
27,59,62,68,58,65,26,31,32.0,45.0,118.0,87.0,180.0,119.0,45.0,37.0
29,63,70,74,64,53,27,28,35.0,49.0,128.0,80.0,162.0,136.0,46.0,32.0
32,67,72,69,64,48,27,25,33.0,52.0,132.0,85.0,157.0,166.0,45.0,31.0
32,72,72,67,60,37,27,24,33.0,56.0,181.0,102.0,160.0,167.0,46.0,29.0
34,72,79,70,62,40,26,24,35.0,64.0,202.0,98.0,128.0,170.0,55.0,28.0
35,80,78,66,59,37,27,26,40.0,78.0,256.0,107.0,112.0,174.0,56.0,31.0
40,106,90,56,49,42,27,29,40.0,81.0,284.0,116.0,115.0,159.0,54.0,30.0
38,122,126,58,48,41,23,28,52.0,106.0,334.0,131.0,139.0,141.0,61.0,37.0
40,179,157,58,45,38,24,31,62.0,119.0,348.0,131.0,139.0,151.0,68.0,44.0
39,191,164,57,47,37,27,34,74.0,131.0,411.0,134.0,142.0,161.0,66.0,53.0
38,200,166,71,52,39,30,35,94.0,137.0,515.0,177.0,153.0,172.0,76.0,62.0
44,201,189,81,60,42,36,50,110.0,173.0,618.0,207.0,155.0,171.0,76.0,63.0
48,211,209,83,73,46,40,60,122.0,182.0,673.0,208.0,139.0,164.0,74.0,66.0
55,223,253,82,82,51,45,64,125.0,182.0,677.0,215.0,126.0,171.0,70.0,62.0
58,231,278,86,87,52,46,67,129.0,220.0,678.0,222.0,120.0,170.0,68.0,58.0
62,256,327,96,87,51,45,69,125.0,236.0,718.0,245.0,133.0,202.0,69.0,48.0
59,268,335,97,81,44,40,60,121.0,225.0,711.0,268.0,143.0,246.0,79.0,50.0
63,277,361,105,75,49,42,58,134.0,243.0,727.0,282.0,160.0,261.0,93.0,62.0
67,291,354,118,73,50,42,59,137.0,276.0,745.0,299.0,168.0,251.0,97.0,70.0
96,328,399,122,118,63,50,74,178.0,301.0,731.0,355.0,204.0,249.0,99.0,75.0
99,327,378,124,128,70,54,86,186.0,331.0,641.0,353.0,199.0,221.0,97.0,82.0
113,364,450,134,145,78,64,100,207.0,364.0,639.0,364.0,218.0,201.0,99.0,86.0
119,366,432,148,147,77,66,105,204.0,351.0,554.0,358.0,219.0,194.0,93.0,81.0
124,349,477,163,147,79,66,111,226.0,331.0,599.0,384.0,231.0,219.0,95.0,83.0
115,324,434,165,124,78,67,108,207.0,322.0,622.0,356.0,202.0,208.0,95.0,83.0
125,312,474,166,125,76,64,103,227.0,296.0,601.0,338.0,211.0,213.0,94.0,90.0
122,258,423,166,137,78,64,97,249.0,298.0,542.0,309.0,182.0,193.0,92.0,92.0
117,250,438,162,160,85,63,91,245.0,292.0,575.0,315.0,168.0,181.0,84.0,91.0
118,241,399,152,173,85,65,91,232.0,327.0,541.0,259.0,167.0,150.0,76.0,94.0
127,245,408,161,173,80,60,97,229.0,313.0,624.0,247.0,175.0,143.0,71.0,94.0
126,272,350,163,171,78,58,94,214.0,315.0,678.0,249.0,158.0,130.0,73.0,85.0
125,301,335,189,167,71,52,90,175.0,288.0,677.0,242.0,162.0,140.0,67.0,83.0
124,294,315,179,150,67,51,95,194.0,364.0,717.0,238.0,155.0,136.0,70.0,86.0
120,292,297,175,139,60,44,89,203.0,344.0,713.0,248.0,134.0,139.0,73.0,78.0
105,286,292,165,139,63,46,79,216.0,350.0,643.0,266.0,144.0,160.0,80.0,80.0
107,273,349,170,147,72,55,96,203.0,346.0,599.0,271.0,163.0,168.0,76.0,77.0
99,270,348,137,139,73,52,93,203.0,343.0,571.0,265.0,165.0,152.0,73.0,75.0
110,283,348,140,135,69,49,90,177.0,265.0,566.0,255.0,163.0,184.0,73.0,69.0
104,274,362,133,134,71,50,92,190.0,255.0,580.0,267.0,172.0,181.0,74.0,72.0
107,269,366,139,125,64,47,90,167.0,246.0,548.0,234.0,155.0,164.0,69.0,67.0
101,268,339,127,111,55,40,79,164.0,232.0,556.0,219.0,138.0,161.0,66.0,68.0
106,229,337,120,91,49,39,79,168.0,269.0,595.0,214.0,134.0,166.0,66.0,67.0
110,216,332,141,89,46,38,80,184.0,289.0,530.0,247.0,147.0,136.0,68.0,65.0
114,259,313,155,104,54,44,78,201.0,276.0,510.0,253.0,136.0,142.0,63.0,62.0
114,254,330,148,109,55,45,81,200.0,255.0,536.0,261.0,136.0,155.0,72.0,62.0
112,253,347,155,111,52,42,79,210.0,270.0,531.0,267.0,141.0,160.0,79.0,70.0
109,284,349,161,135,69,47,82,205.0,248.0,531.0,324.0,177.0,184.0,88.0,67.0
101,288,335,145,136,70,49,81,200.0,259.0,520.0,298.0,173.0,177.0,85.0,65.0
104,269,360,147,120,70,49,92,145.0,268.0,526.0,298.0,177.0,189.0,86.0,63.0
99,292,373,155,124,72,47,86,145.0,259.0,496.0,291.0,177.0,200.0,79.0,62.0
101,284,349,146,120,74,47,79,142.0,250.0,487.0,278.0,160.0,189.0,70.0,47.0
97,256,337,135,98,59,42,75,142.0,218.0,483.0,205.0,119.0,166.0,62.0,47.0
92,256,351,128,100,59,42,75,126.0,184.0,532.0,208.0,108.0,168.0,55.0,45.0
81,224,297,107,97,48,33,57,121.0,168.0,483.0,167.0,96.0,188.0,65.0,43.0
73,173,236,90,78,45,35,55,111.0,163.0,458.0,144.0,85.0,204.0,100.0,39.0
57,156,200,72,74,49,32,50,88.0,138.0,411.0,124.0,86.0,233.0,115.0,38.0
54,143,169,65,70,99,33,46,55.0,119.0,337.0,107.0,66.0,233.0,112.0,36.0
42,101,122,57,77,125,31,34,43.0,73.0,191.0,66.0,61.0,231.0,113.0,36.0
39,91,116,48,83,135,35,31,40.0,64.0,142.0,60.0,53.0,200.0,110.0,36.0
36,86,82,50,81,138,32,27,38.0,55.0,102.0,52.0,50.0,175.0,90.0,37.0
31,54,60,44,78,138,33,27,41.0,51.0,85.0,44.0,51.0,168.0,90.0,39.0
27,49,52,48,84,175,35,28,44.0,56.0,66.0,41.0,53.0,170.0,90.0,38.0
29,49,46,49,79,198,36,28,45.0,55.0,59.0,40.0,55.0,188.0,95.0,40.0
33,44,44,49,77,208,35,28,45.0,57.0,52.0,44.0,55.0,223.0,107.0,38.0
34,44,43,47,83,242,42,29,46.0,61.0,49.0,44.0,57.0,236.0,107.0,42.0
35,51,50,64,115,269,45,29,54.0,69.0,57.0,53.0,58.0,230.0,101.0,44.0
37,54,52,66,116,243,51,54,56.0,63.0,57.0,53.0,69.0,290.0,131.0,76.0
39,58,61,75,120,250,51,58,64.0,69.0,65.0,53.0,78.0,317.0,129.0,88.0
42,64,63,86,148,271,80,128,68.0,73.0,66.0,53.0,84.0,342.0,127.0,140.0
42,69,65,95,160,286,89,157,78.0,76.0,66.0,55.0,82.0,339.0,136.0,152.0
45,70,65,91,150,295,119,202,100.0,82.0,63.0,48.0,86.0,335.0,134.0,168.0
49,76,65,92,166,327,125,260,102.0,85.0,63.0,47.0,76.0,291.0,114.0,164.0
47,80,59,92,167,319,127,271,101.0,89.0,61.0,47.0,70.0,316.0,137.0,166.0
44,78,60,86,149,331,123,271,103.0,91.0,59.0,48.0,68.0,334.0,174.0,156.0
130,81,65,91,175,363,149,270,103.0,90.0,58.0,45.0,69.0,326.0,165.0,152.0
224,84,69,94,185,391,135,248,81.0,89.0,60.0,42.0,67.0,343.0,172.0,144.0
236,88,70,102,197,387,142,289,80.0,93.0,64.0,44.0,68.0,393.0,181.0,188.0
238,89,74,109,211,417,158,311,82.0,92.0,59.0,42.0,63.0,357.0,181.0,199.0
241,94,82,126,244,425,199,323,84.0,95.0,65.0,40.0,59.0,311.0,166.0,203.0
209,90,75,121,228,379,181,345,89.0,111.0,76.0,42.0,64.0,351.0,177.0,218.0
104,99,73,126,230,337,204,370,99.0,110.0,78.0,46.0,60.0,378.0,182.0,213.0
74,104,77,131,250,425,216,308,102.0,107.0,74.0,48.0,57.0,358.0,180.0,196.0
77,100,74,134,282,447,218,286,100.0,106.0,76.0,51.0,56.0,353.0,173.0,186.0
75,99,63,119,268,446,175,255,94.0,103.0,72.0,55.0,60.0,367.0,161.0,163.0
76,103,68,117,263,440,178,252,79.0,82.0,63.0,56.0,54.0,344.0,151.0,136.0
76,93,60,108,260,443,150,205,62.0,78.0,54.0,51.0,51.0,311.0,144.0,140.0
73,84,58,100,222,336,122,206,52.0,75.0,52.0,49.0,52.0,282.0,135.0,110.0
64,84,58,86,181,283,108,198,48.0,71.0,51.0,46.0,59.0,287.0,130.0,102.0
57,82,60,87,167,243,107,194,47.0,69.0,51.0,37.0,56.0,264.0,115.0,99.0
51,76,57,88,176,251,113,163,52.0,73.0,48.0,35.0,52.0,245.0,114.0,97.0
54,74,59,94,169,249,110,188,58.0,65.0,49.0,35.0,48.0,208.0,102.0,89.0
55,69,57,89,174,245,108,195,59.0,65.0,48.0,33.0,44.0,185.0,93.0,72.0
55,62,55,85,146,197,92,188,60.0,57.0,44.0,31.0,32.0,144.0,79.0,63.0
52,59,51,77,132,173,90,187,57.0,53.0,44.0,31.0,37.0,108.0,67.0,50.0
47,57,49,66,107,145,60,159,52.0,48.0,43.0,36.0,46.0,85.0,52.0,42.0
38,53,45,60,95,96,45,122,43.0,51.0,44.0,50.0,49.0,79.0,46.0,39.0
31,49,40,60,65,74,34,60,42.0,49.0,53.0,62.0,56.0,58.0,40.0,38.0
26,63,40,65,62,55,27,50,69.0,67.0,65.0,85.0,63.0,59.0,38.0,42.0
23,60,59,70,55,54,28,35,126.0,99.0,69.0,122.0,91.0,61.0,44.0,51.0
29,65,72,86,59,58,24,47,129.0,103.0,79.0,150.0,105.0,58.0,43.0,54.0
32,68,99,98,84,60,25,48,152.0,117.0,82.0,159.0,110.0,53.0,40.0,52.0
34,67,128,105,96,61,29,48,154.0,118.0,83.0,161.0,128.0,68.0,44.0,54.0
37,56,138,110,103,64,29,52,145.0,111.0,74.0,170.0,143.0,84.0,46.0,48.0
41,57,136,117,104,60,28,53,105.0,91.0,72.0,163.0,141.0,91.0,49.0,42.0
38,53,139,115,101,49,28,40,110.0,101.0,138.0,151.0,133.0,96.0,50.0,41.0
42,66,152,122,99,50,31,44,81.0,98.0,239.0,142.0,133.0,97.0,55.0,41.0
41,87,156,114,93,51,29,43,113.0,137.0,277.0,152.0,127.0,96.0,55.0,43.0
43,121,156,110,85,52,30,42,117.0,148.0,327.0,147.0,117.0,116.0,53.0,44.0
44,141,184,106,86,57,32,46,142.0,177.0,460.0,154.0,114.0,131.0,48.0,42.0
46,158,193,100,92,59,32,49,156.0,185.0,513.0,174.0,129.0,135.0,50.0,41.0
48,189,232,86,90,60,31,49,159.0,207.0,609.0,232.0,149.0,152.0,58.0,49.0
55,231,272,119,88,58,30,51,167.0,229.0,726.0,246.0,151.0,162.0,71.0,55.0
55,246,281,128,113,65,37,57,192.0,273.0,854.0,250.0,178.0,175.0,86.0,73.0
64,313,304,141,130,65,37,61,206.0,295.0,919.0,285.0,217.0,188.0,92.0,82.0
71,347,361,159,147,80,50,69,230.0,331.0,1011.0,387.0,227.0,195.0,95.0,86.0
92,412,408,187,158,82,54,80,251.0,336.0,1029.0,430.0,235.0,212.0,101.0,88.0
96,425,415,180,170,87,61,91,239.0,327.0,1022.0,462.0,241.0,216.0,98.0,85.0
101,446,485,183,161,84,65,101,255.0,308.0,958.0,500.0,232.0,202.0,92.0,73.0
103,417,496,190,157,82,65,107,243.0,278.0,911.0,478.0,200.0,203.0,94.0,66.0
104,400,490,185,139,68,61,111,230.0,280.0,886.0,468.0,198.0,206.0,102.0,83.0
88,352,476,162,137,68,66,112,214.0,262.0,933.0,433.0,187.0,188.0,96.0,80.0
94,325,479,159,129,64,62,110,219.0,273.0,901.0,414.0,183.0,190.0,101.0,91.0
94,293,419,157,128,62,59,105,211.0,271.0,872.0,402.0,177.0,190.0,105.0,97.0
104,273,401,159,128,65,63,107,197.0,281.0,972.0,406.0,179.0,176.0,105.0,97.0
120,275,427,159,150,78,66,114,189.0,251.0,948.0,326.0,177.0,173.0,98.0,82.0
118,255,373,151,135,75,61,108,197.0,285.0,853.0,321.0,183.0,165.0,97.0,89.0
114,261,335,152,133,79,60,103,189.0,267.0,853.0,305.0,177.0,156.0,90.0,80.0
118,282,355,181,132,81,63,110,210.0,321.0,993.0,346.0,196.0,160.0,88.0,72.0
111,296,433,176,128,80,61,108,242.0,322.0,874.0,386.0,207.0,184.0,82.0,81.0
96,303,494,182,108,71,53,96,237.0,317.0,841.0,380.0,193.0,176.0,77.0,80.0
96,301,502,191,114,71,54,101,226.0,302.0,819.0,355.0,171.0,182.0,74.0,74.0
90,284,508,183,111,62,52,98,222.0,299.0,807.0,339.0,168.0,174.0,74.0,74.0
79,263,491,146,103,55,46,80,168.0,259.0,622.0,280.0,143.0,174.0,77.0,73.0
85,265,404,130,100,52,41,72,122.0,257.0,609.0,253.0,128.0,168.0,77.0,61.0
95,252,305,125,107,52,41,70,125.0,246.0,568.0,261.0,128.0,173.0,74.0,58.0
95,232,310,119,98,45,39,64,142.0,265.0,626.0,265.0,136.0,173.0,80.0,61.0
95,240,297,121,95,45,38,64,143.0,255.0,569.0,263.0,131.0,186.0,79.0,57.0
97,257,308,121,102,52,39,66,136.0,215.0,556.0,217.0,115.0,184.0,69.0,53.0
83,234,318,114,98,51,40,62,127.0,193.0,538.0,161.0,93.0,160.0,61.0,51.0
58,208,249,94,81,44,37,52,104.0,181.0,516.0,132.0,82.0,173.0,71.0,50.0
54,206,221,72,73,43,31,46,63.0,97.0,389.0,96.0,66.0,169.0,69.0,40.0
53,186,213,68,76,79,30,43,52.0,90.0,375.0,84.0,65.0,208.0,93.0,37.0
47,118,159,60,70,133,28,36,47.0,65.0,331.0,74.0,63.0,241.0,108.0,35.0
43,111,126,62,82,186,46,60,42.0,42.0,232.0,63.0,56.0,254.0,121.0,36.0
42,100,105,57,93,215,51,61,39.0,38.0,173.0,45.0,60.0,309.0,155.0,37.0
42,82,90,59,109,250,52,60,37.0,38.0,121.0,41.0,61.0,348.0,170.0,35.0
38,72,69,56,118,275,70,69,35.0,37.0,99.0,42.0,60.0,355.0,169.0,39.0
37,72,67,56,124,286,74,70,39.0,41.0,78.0,40.0,68.0,378.0,179.0,42.0
37,63,53,59,140,316,67,53,37.0,41.0,61.0,40.0,65.0,372.0,173.0,41.0
33,60,52,64,151,342,68,51,32.0,42.0,56.0,39.0,56.0,336.0,151.0,37.0
31,60,54,61,145,331,73,73,40.0,52.0,48.0,36.0,56.0,338.0,145.0,39.0
35,58,51,62,146,321,59,69,44.0,59.0,50.0,38.0,60.0,339.0,140.0,36.0
34,58,51,61,147,313,55,71,48.0,64.0,53.0,36.0,50.0,315.0,129.0,86.0
37,52,50,59,136,287,76,114,63.0,79.0,53.0,36.0,59.0,391.0,172.0,100.0
43,59,49,57,137,276,101,143,73.0,82.0,53.0,40.0,61.0,386.0,179.0,113.0
43,55,48,60,161,320,133,183,82.0,79.0,55.0,40.0,61.0,359.0,171.0,133.0
42,51,46,61,154,333,144,192,88.0,76.0,46.0,43.0,62.0,413.0,198.0,163.0
44,52,50,68,154,341,145,197,99.0,110.0,47.0,47.0,64.0,418.0,194.0,165.0
44,54,51,73,167,364,139,179,149.0,120.0,53.0,68.0,60.0,356.0,176.0,175.0
42,50,96,97,187,367,161,164,167.0,128.0,59.0,72.0,60.0,359.0,182.0,190.0
46,57,110,114,172,339,221,165,167.0,127.0,59.0,73.0,60.0,362.0,185.0,190.0
46,63,113,117,175,315,216,176,175.0,128.0,60.0,71.0,61.0,274.0,152.0,172.0
43,65,113,118,177,299,220,176,194.0,102.0,59.0,71.0,63.0,257.0,161.0,168.0
42,64,113,115,168,269,225,195,169.0,84.0,59.0,54.0,70.0,263.0,175.0,161.0
40,63,81,98,148,253,200,200,149.0,87.0,52.0,49.0,71.0,276.0,181.0,161.0
42,59,71,93,190,290,117,197,153.0,94.0,49.0,52.0,68.0,279.0,187.0,170.0
43,58,70,89,191,302,125,184,143.0,96.0,48.0,55.0,62.0,320.0,215.0,170.0
45,56,65,86,192,300,126,194,113.0,95.0,49.0,55.0,57.0,369.0,240.0,182.0
45,70,70,94,231,324,121,182,101.0,111.0,47.0,56.0,57.0,413.0,231.0,210.0
46,74,68,96,242,339,128,202,102.0,101.0,51.0,58.0,55.0,403.0,214.0,202.0
40,77,64,91,227,308,117,209,87.0,95.0,52.0,57.0,55.0,396.0,214.0,189.0
39,75,64,98,241,320,106,219,103.0,96.0,52.0,55.0,60.0,371.0,205.0,206.0
40,78,69,102,240,321,101,221,111.0,106.0,56.0,57.0,63.0,348.0,170.0,190.0
40,65,61,97,197,276,114,219,106.0,88.0,55.0,57.0,53.0,277.0,166.0,188.0
38,60,59,96,179,235,115,231,102.0,88.0,51.0,56.0,57.0,284.0,178.0,185.0
41,55,52,91,169,229,114,216,109.0,92.0,52.0,52.0,57.0,303.0,167.0,201.0
40,56,47,87,177,274,120,206,91.0,88.0,50.0,49.0,52.0,281.0,149.0,192.0
39,51,45,85,183,269,118,199,69.0,73.0,47.0,43.0,48.0,224.0,139.0,196.0
41,52,48,86,180,264,98,221,63.0,70.0,44.0,38.0,47.0,221.0,123.0,167.0
42,56,47,80,172,264,87,179,63.0,65.0,43.0,35.0,43.0,188.0,96.0,157.0
38,54,49,77,154,248,75,147,69.0,59.0,42.0,40.0,48.0,255.0,108.0,132.0
40,53,51,72,115,154,59,140,70.0,58.0,45.0,48.0,63.0,258.0,94.0,108.0
40,55,50,72,114,193,60,127,69.0,52.0,45.0,49.0,71.0,254.0,88.0,80.0
36,58,48,70,113,193,55,58,72.0,48.0,54.0,78.0,78.0,257.0,79.0,60.0
35,60,51,70,107,178,49,52,73.0,69.0,66.0,100.0,79.0,318.0,79.0,61.0
35,60,53,66,104,169,46,47,60.0,83.0,106.0,110.0,106.0,317.0,74.0,54.0
39,66,95,94,201,228,66,43,64.0,89.0,198.0,116.0,120.0,353.0,78.0,61.0
37,71,106,104,205,242,62,41,63.0,92.0,245.0,136.0,120.0,354.0,80.0,61.0
40,88,137,109,212,253,63,38,69.0,103.0,276.0,126.0,121.0,356.0,82.0,60.0
42,90,151,108,214,255,63,36,70.0,100.0,282.0,135.0,120.0,303.0,74.0,55.0
43,93,162,114,217,257,63,36,69.0,90.0,283.0,141.0,105.0,242.0,61.0,51.0
38,95,146,104,131,203,41,33,68.0,83.0,263.0,134.0,87.0,171.0,54.0,44.0
37,96,154,97,101,126,33,29,71.0,84.0,234.0,123.0,93.0,192.0,55.0,40.0
34,94,147,99,92,95,28,27,62.0,72.0,216.0,131.0,106.0,224.0,55.0,39.0
30,93,142,101,92,85,31,27,81.0,72.0,283.0,121.0,118.0,225.0,53.0,43.0
29,94,146,95,83,71,31,28,82.0,73.0,284.0,114.0,109.0,189.0,48.0,39.0
28,87,160,90,78,71,29,30,80.0,79.0,274.0,121.0,116.0,208.0,58.0,34.0
30,90,149,84,81,71,30,31,81.0,86.0,285.0,133.0,113.0,196.0,65.0,38.0
35,93,150,79,65,59,29,32,88.0,107.0,317.0,143.0,99.0,152.0,66.0,44.0
39,122,154,80,62,60,27,35,72.0,110.0,369.0,155.0,83.0,143.0,66.0,45.0
41,155,169,84,70,64,29,39,97.0,156.0,510.0,196.0,133.0,155.0,77.0,54.0
47,168,164,93,88,56,32,43,106.0,170.0,637.0,212.0,132.0,128.0,70.0,58.0
54,197,197,103,95,61,39,50,111.0,179.0,797.0,256.0,133.0,101.0,63.0,59.0
60,241,261,101,108,62,43,56,116.0,177.0,836.0,261.0,138.0,97.0,62.0,58.0
59,248,282,131,123,64,45,63,128.0,187.0,831.0,296.0,191.0,196.0,96.0,64.0
62,244,300,136,121,59,47,65,112.0,164.0,773.0,305.0,189.0,230.0,99.0,65.0
64,272,319,153,122,75,55,70,112.0,161.0,720.0,350.0,214.0,255.0,101.0,65.0
63,296,323,168,131,75,52,71,118.0,163.0,631.0,352.0,232.0,261.0,102.0,63.0
68,290,337,188,138,74,51,74,136.0,176.0,766.0,402.0,249.0,269.0,110.0,62.0
74,288,348,178,144,80,52,74,135.0,192.0,765.0,398.0,218.0,235.0,83.0,58.0
78,347,456,191,155,85,53,82,176.0,222.0,896.0,441.0,238.0,198.0,81.0,81.0
89,370,466,187,163,71,49,88,185.0,236.0,943.0,435.0,237.0,175.0,81.0,89.0
107,345,505,219,184,80,59,113,181.0,235.0,933.0,437.0,231.0,172.0,80.0,90.0
108,363,484,212,175,82,60,112,190.0,237.0,807.0,427.0,221.0,183.0,73.0,95.0
109,402,496,220,165,76,58,111,188.0,241.0,816.0,424.0,231.0,152.0,74.0,92.0
110,378,424,208,163,73,57,110,163.0,214.0,714.0,382.0,214.0,277.0,88.0,79.0
111,362,444,198,162,78,61,115,154.0,212.0,638.0,367.0,220.0,304.0,100.0,78.0
106,401,442,166,146,75,60,103,158.0,224.0,704.0,346.0,219.0,306.0,101.0,80.0
98,387,452,159,152,71,59,100,134.0,217.0,716.0,324.0,236.0,300.0,102.0,84.0
96,347,426,145,150,72,59,98,145.0,214.0,713.0,307.0,227.0,297.0,102.0,87.0
99,324,387,144,148,76,65,105,134.0,210.0,693.0,293.0,212.0,198.0,89.0,75.0
86,299,338,141,135,75,61,92,130.0,203.0,706.0,267.0,183.0,162.0,74.0,69.0
71,249,275,122,111,61,51,75,122.0,189.0,582.0,255.0,169.0,166.0,76.0,66.0
94,265,296,126,101,63,53,85,108.0,183.0,578.0,209.0,126.0,173.0,73.0,52.0
91,253,284,120,96,59,52,85,80.0,147.0,532.0,192.0,113.0,185.0,76.0,44.0
81,237,269,113,77,50,42,66,69.0,140.0,508.0,163.0,97.0,172.0,67.0,43.0
80,229,265,107,62,40,36,60,61.0,117.0,468.0,158.0,80.0,165.0,65.0,38.0
77,210,248,95,68,39,35,59,58.0,109.0,457.0,133.0,73.0,155.0,60.0,38.0
49,156,148,72,61,37,30,38,56.0,87.0,383.0,129.0,73.0,262.0,107.0,38.0
44,152,134,64,82,108,34,35,53.0,87.0,356.0,116.0,71.0,318.0,120.0,38.0
42,141,127,62,109,179,40,39,46.0,83.0,284.0,92.0,59.0,326.0,122.0,35.0
37,125,106,56,113,194,45,37,39.0,72.0,207.0,75.0,63.0,360.0,164.0,37.0
36,121,112,59,113,205,47,35,31.0,45.0,146.0,93.0,58.0,410.0,192.0,38.0
32,73,94,62,126,278,57,37,34.0,46.0,109.0,96.0,57.0,385.0,183.0,43.0
34,64,104,66,152,331,60,38,34.0,49.0,91.0,95.0,56.0,365.0,198.0,45.0
33,61,106,74,145,319,58,32,35.0,47.0,79.0,89.0,58.0,380.0,205.0,44.0
37,62,108,82,153,364,61,42,35.0,49.0,59.0,78.0,48.0,351.0,176.0,43.0
37,61,85,77,157,373,62,43,36.0,51.0,46.0,49.0,51.0,324.0,152.0,42.0
37,59,75,74,150,330,53,39,35.0,56.0,39.0,45.0,52.0,311.0,141.0,37.0
36,57,56,72,115,276,50,38,38.0,59.0,40.0,41.0,65.0,320.0,119.0,39.0
39,54,51,66,117,267,52,39,38.0,63.0,44.0,42.0,66.0,348.0,131.0,44.0
37,52,49,68,116,245,46,28,37.0,68.0,45.0,40.0,75.0,474.0,152.0,52.0
36,56,48,71,112,237,51,27,39.0,71.0,46.0,42.0,77.0,531.0,164.0,52.0
33,56,52,76,142,270,63,57,38.0,66.0,43.0,47.0,74.0,566.0,178.0,53.0
36,57,50,80,168,309,67,64,37.0,61.0,45.0,48.0,66.0,613.0,187.0,49.0
35,57,52,84,188,368,67,66,38.0,62.0,44.0,45.0,74.0,653.0,207.0,48.0
36,54,51,86,243,406,79,70,44.0,56.0,45.0,46.0,64.0,568.0,203.0,44.0
36,52,54,87,248,410,81,101,41.0,53.0,42.0,46.0,59.0,510.0,197.0,44.0
35,53,54,84,239,406,76,96,50.0,53.0,43.0,42.0,60.0,467.0,182.0,43.0
35,51,56,82,224,368,95,97,49.0,52.0,45.0,41.0,60.0,393.0,167.0,45.0
35,60,58,86,227,381,105,105,54.0,51.0,42.0,42.0,46.0,343.0,131.0,53.0
36,62,60,78,188,321,101,117,50.0,52.0,39.0,42.0,51.0,359.0,120.0,54.0
36,65,58,79,220,330,104,102,54.0,54.0,44.0,42.0,51.0,384.0,115.0,56.0
39,64,57,81,218,330,111,108,50.0,56.0,50.0,43.0,52.0,384.0,125.0,58.0
37,74,59,90,233,359,101,106,56.0,60.0,45.0,43.0,45.0,366.0,126.0,65.0
35,69,56,83,215,279,96,100,51.0,57.0,47.0,40.0,42.0,316.0,119.0,58.0
32,67,51,86,197,280,106,99,52.0,60.0,55.0,40.0,41.0,311.0,116.0,58.0
35,72,49,88,160,276,103,110,50.0,56.0,54.0,39.0,45.0,266.0,117.0,54.0
32,72,52,94,164,279,94,106,53.0,54.0,49.0,39.0,42.0,266.0,112.0,54.0
37,64,51,88,144,253,88,106,47.0,50.0,47.0,41.0,41.0,269.0,108.0,47.0
37,62,49,88,154,262,85,109,46.0,56.0,50.0,45.0,46.0,314.0,121.0,49.0
39,64,49,83,159,276,70,97,44.0,53.0,45.0,45.0,42.0,300.0,116.0,43.0
38,59,45,80,183,309,71,70,43.0,53.0,44.0,47.0,44.0,308.0,125.0,44.0
39,62,48,75,176,292,70,59,35.0,54.0,45.0,49.0,44.0,277.0,115.0,41.0
35,62,45,81,209,329,69,55,36.0,51.0,49.0,48.0,51.0,262.0,110.0,37.0
35,62,47,77,199,317,61,37,35.0,46.0,44.0,52.0,50.0,167.0,86.0,32.0
33,57,47,75,188,289,55,31,33.0,45.0,45.0,56.0,54.0,151.0,82.0,33.0
33,52,51,72,156,225,43,29,31.0,43.0,43.0,61.0,54.0,89.0,47.0,33.0
33,46,52,67,149,204,39,26,30.0,41.0,45.0,71.0,67.0,74.0,46.0,34.0
35,51,65,57,82,106,29,24,31.0,42.0,47.0,74.0,97.0,73.0,43.0,37.0
36,54,68,61,63,86,25,25,30.0,38.0,77.0,111.0,107.0,78.0,38.0,36.0
36,58,74,68,76,89,24,25,35.0,47.0,111.0,119.0,152.0,120.0,46.0,45.0
34,61,80,67,88,94,28,26,41.0,62.0,136.0,136.0,176.0,140.0,56.0,49.0
33,70,85,76,86,97,28,27,44.0,71.0,183.0,152.0,185.0,146.0,54.0,47.0
33,94,79,82,84,99,30,31,51.0,80.0,240.0,163.0,188.0,167.0,59.0,44.0
33,99,91,88,93,95,30,31,53.0,84.0,315.0,148.0,187.0,171.0,62.0,45.0
32,108,100,88,83,78,28,31,59.0,101.0,426.0,181.0,157.0,153.0,59.0,35.0
40,119,118,96,67,71,25,31,64.0,116.0,460.0,214.0,150.0,165.0,64.0,34.0
43,134,147,107,69,58,26,37,70.0,131.0,470.0,206.0,150.0,183.0,70.0,39.0
43,137,160,113,84,59,30,44,84.0,150.0,513.0,242.0,150.0,167.0,68.0,43.0
47,164,194,116,77,64,37,47,97.0,170.0,525.0,253.0,153.0,162.0,70.0,46.0
64,226,288,115,92,72,46,62,127.0,194.0,542.0,284.0,189.0,162.0,74.0,58.0
69,255,294,125,100,65,46,67,150.0,245.0,621.0,268.0,190.0,164.0,79.0,70.0
75,265,326,126,116,70,53,77,153.0,269.0,653.0,283.0,194.0,174.0,78.0,73.0
80,303,360,138,128,72,56,87,173.0,282.0,655.0,275.0,193.0,166.0,78.0,78.0
84,305,373,151,136,74,56,92,182.0,301.0,674.0,303.0,205.0,178.0,80.0,78.0
78,287,352,171,135,73,52,87,163.0,288.0,695.0,271.0,173.0,171.0,75.0,72.0
87,273,363,167,133,74,56,87,145.0,253.0,707.0,277.0,158.0,145.0,62.0,62.0
84,278,339,161,121,69,50,79,154.0,272.0,720.0,267.0,148.0,110.0,63.0,65.0
86,256,327,148,115,63,46,72,136.0,264.0,726.0,306.0,144.0,133.0,64.0,59.0
86,269,362,149,121,58,44,67,135.0,279.0,704.0,271.0,132.0,133.0,66.0,63.0
98,296,360,132,112,51,45,73,136.0,292.0,661.0,268.0,139.0,143.0,67.0,63.0
90,301,347,124,117,51,41,73,138.0,300.0,591.0,291.0,144.0,141.0,66.0,61.0
92,286,374,136,127,64,45,76,126.0,256.0,579.0,300.0,147.0,146.0,60.0,55.0
88,291,392,134,120,62,43,68,138.0,296.0,622.0,283.0,159.0,138.0,66.0,63.0
89,276,348,125,117,64,41,69,123.0,252.0,610.0,298.0,155.0,140.0,66.0,61.0
87,245,340,125,144,75,49,77,125.0,249.0,612.0,315.0,152.0,134.0,70.0,63.0
88,237,357,131,139,74,51,78,132.0,257.0,583.0,296.0,162.0,133.0,73.0,69.0
95,257,355,118,136,67,51,82,130.0,261.0,547.0,291.0,167.0,121.0,74.0,67.0
98,234,326,126,146,68,54,87,106.0,216.0,546.0,246.0,144.0,180.0,70.0,58.0
95,227,327,128,147,67,54,86,123.0,257.0,656.0,254.0,177.0,219.0,82.0,65.0
82,229,324,130,129,55,45,71,118.0,239.0,604.0,221.0,173.0,223.0,81.0,62.0
80,227,341,128,134,62,54,79,147.0,255.0,734.0,241.0,178.0,223.0,85.0,66.0
69,207,335,127,132,59,50,71,158.0,289.0,756.0,238.0,176.0,226.0,92.0,73.0
75,279,369,116,119,61,50,77,166.0,288.0,710.0,257.0,191.0,212.0,100.0,80.0
80,310,373,110,116,63,53,85,157.0,263.0,655.0,268.0,179.0,192.0,93.0,74.0
90,302,372,106,117,69,55,99,158.0,284.0,722.0,278.0,182.0,191.0,92.0,74.0
106,312,357,110,118,70,54,99,129.0,245.0,632.0,276.0,181.0,224.0,94.0,70.0
108,312,342,106,116,71,55,102,125.0,231.0,691.0,277.0,182.0,237.0,94.0,67.0
106,251,309,114,114,67,52,99,112.0,213.0,699.0,266.0,169.0,210.0,82.0,60.0
110,203,292,106,101,65,53,98,102.0,197.0,654.0,218.0,139.0,196.0,76.0,57.0
103,181,277,98,86,58,50,84,100.0,173.0,619.0,202.0,139.0,207.0,77.0,59.0
83,155,255,87,75,49,41,73,83.0,160.0,560.0,141.0,109.0,204.0,99.0,53.0
77,155,228,86,60,48,40,65,63.0,104.0,457.0,127.0,99.0,209.0,100.0,46.0
67,135,193,69,63,98,43,53,53.0,95.0,371.0,102.0,89.0,230.0,106.0,46.0
46,125,173,61,67,107,38,41,50.0,89.0,355.0,100.0,89.0,271.0,122.0,50.0
39,120,132,57,84,150,40,38,50.0,55.0,257.0,90.0,80.0,307.0,166.0,49.0
34,109,117,59,108,206,47,54,50.0,52.0,266.0,87.0,78.0,306.0,165.0,44.0
37,89,113,58,122,242,57,78,46.0,44.0,196.0,62.0,55.0,312.0,165.0,45.0
37,82,106,59,124,235,55,81,46.0,45.0,237.0,56.0,56.0,295.0,163.0,42.0
35,81,101,59,125,256,55,82,43.0,47.0,196.0,54.0,56.0,247.0,153.0,38.0
35,78,94,62,115,245,52,81,37.0,45.0,196.0,44.0,58.0,185.0,103.0,41.0
34,64,68,57,94,212,49,70,47.0,47.0,169.0,41.0,60.0,148.0,134.0,105.0
27,53,57,57,78,175,66,86,48.0,45.0,164.0,40.0,70.0,106.0,224.0,158.0
24,53,54,56,72,175,97,153,59.0,51.0,91.0,40.0,72.0,109.0,318.0,207.0
25,54,49,64,78,203,157,163,64.0,52.0,75.0,41.0,71.0,110.0,401.0,216.0
32,68,53,76,93,275,202,179,65.0,52.0,61.0,42.0,67.0,170.0,416.0,240.0
35,71,56,82,96,287,228,209,74.0,72.0,58.0,43.0,65.0,177.0,424.0,253.0
37,70,54,84,103,293,254,212,76.0,77.0,59.0,46.0,52.0,194.0,388.0,258.0
39,75,53,88,104,298,268,238,90.0,79.0,55.0,46.0,45.0,229.0,359.0,267.0
44,80,54,88,108,301,252,264,92.0,77.0,53.0,47.0,41.0,246.0,342.0,285.0
42,72,48,79,107,277,247,259,97.0,84.0,54.0,50.0,44.0,225.0,359.0,303.0
48,87,55,97,122,287,288,337,93.0,79.0,49.0,50.0,46.0,267.0,358.0,334.0
52,90,60,98,125,309,281,333,103.0,79.0,48.0,51.0,47.0,275.0,365.0,320.0
59,100,74,125,162,336,330,377,96.0,87.0,48.0,48.0,57.0,286.0,340.0,345.0
58,100,76,129,165,317,365,369,95.0,89.0,49.0,49.0,66.0,335.0,280.0,345.0
63,105,78,143,216,307,366,419,95.0,91.0,46.0,43.0,74.0,369.0,243.0,385.0
64,98,76,140,239,322,338,431,100.0,104.0,50.0,43.0,73.0,341.0,291.0,403.0
66,100,80,148,267,322,345,482,95.0,122.0,47.0,50.0,80.0,364.0,298.0,421.0
63,96,70,136,259,311,337,473,112.0,121.0,59.0,53.0,76.0,372.0,360.0,461.0
64,96,72,135,272,319,305,489,117.0,128.0,62.0,61.0,76.0,393.0,354.0,459.0
64,101,75,129,262,351,305,477,115.0,132.0,64.0,69.0,70.0,414.0,373.0,470.0
61,102,74,129,272,383,308,461,105.0,119.0,64.0,72.0,69.0,448.0,325.0,419.0
64,105,74,134,284,413,299,441,100.0,103.0,67.0,66.0,61.0,456.0,317.0,403.0
62,105,75,130,286,402,237,419,68.0,105.0,57.0,63.0,60.0,431.0,226.0,326.0
63,103,70,124,276,383,224,400,54.0,94.0,53.0,51.0,52.0,362.0,214.0,307.0
63,91,66,121,249,337,203,394,45.0,79.0,49.0,41.0,53.0,299.0,167.0,191.0
61,87,63,109,210,262,161,325,44.0,73.0,50.0,53.0,82.0,240.0,134.0,179.0
52,76,55,86,146,163,123,270,42.0,66.0,49.0,60.0,110.0,151.0,101.0,155.0
50,63,48,76,118,145,108,207,42.0,53.0,84.0,74.0,112.0,120.0,83.0,80.0
46,54,50,80,101,132,84,179,40.0,52.0,113.0,77.0,121.0,109.0,70.0,70.0
39,74,60,71,82,96,46,84,41.0,54.0,129.0,89.0,145.0,75.0,63.0,58.0
35,71,63,73,72,77,37,59,47.0,53.0,137.0,90.0,144.0,68.0,54.0,51.0
34,73,66,77,69,75,34,55,46.0,55.0,160.0,135.0,144.0,75.0,57.0,47.0
33,78,71,81,60,59,33,41,42.0,54.0,178.0,133.0,153.0,75.0,56.0,44.0
34,83,86,86,57,59,29,39,42.0,57.0,207.0,140.0,154.0,75.0,53.0,44.0
32,66,84,82,55,58,27,33,44.0,65.0,217.0,135.0,139.0,73.0,47.0,37.0
34,73,95,85,52,42,28,35,50.0,104.0,269.0,136.0,130.0,69.0,48.0,40.0
37,82,99,83,49,37,26,34,49.0,106.0,282.0,105.0,113.0,59.0,41.0,37.0
33,100,109,80,64,39,24,33,51.0,108.0,272.0,117.0,114.0,91.0,43.0,40.0
32,100,115,76,64,40,26,30,63.0,116.0,252.0,113.0,104.0,98.0,45.0,37.0
30,104,119,85,74,42,29,30,68.0,127.0,331.0,120.0,92.0,95.0,43.0,39.0
28,108,113,80,73,40,30,28,58.0,110.0,340.0,139.0,96.0,98.0,44.0,37.0
29,127,114,95,75,41,32,26,85.0,138.0,419.0,136.0,104.0,103.0,43.0,47.0
33,130,127,96,64,38,33,29,103.0,162.0,588.0,169.0,108.0,84.0,45.0,55.0
45,174,144,97,72,38,33,44,134.0,201.0,670.0,202.0,119.0,92.0,51.0,60.0
47,220,231,103,66,37,34,49,187.0,262.0,783.0,261.0,150.0,109.0,62.0,76.0
54,271,254,106,69,44,41,62,190.0,262.0,780.0,252.0,154.0,112.0,62.0,78.0
58,290,296,96,84,49,46,76,214.0,362.0,858.0,290.0,170.0,121.0,72.0,89.0
79,308,330,111,93,54,48,83,209.0,416.0,794.0,297.0,170.0,128.0,70.0,88.0
82,349,377,116,101,59,54,88,194.0,416.0,807.0,284.0,176.0,135.0,110.0,97.0
87,342,369,125,119,67,57,89,206.0,413.0,726.0,245.0,169.0,168.0,163.0,118.0
94,332,375,135,126,76,85,89,255.0,441.0,731.0,255.0,176.0,218.0,167.0,126.0
97,330,376,139,140,88,127,89,233.0,376.0,618.0,238.0,177.0,226.0,168.0,121.0
85,331,372,137,148,92,129,84,239.0,355.0,653.0,242.0,169.0,226.0,174.0,128.0
102,298,376,145,155,100,134,80,259.0,407.0,679.0,288.0,163.0,217.0,152.0,131.0
112,315,379,144,170,100,138,79,243.0,466.0,755.0,339.0,165.0,196.0,99.0,126.0
123,329,424,149,184,95,124,75,207.0,492.0,834.0,361.0,169.0,152.0,99.0,123.0
133,358,431,147,200,87,84,87,221.0,506.0,882.0,362.0,158.0,158.0,106.0,130.0
134,367,442,154,194,86,83,97,240.0,518.0,863.0,341.0,170.0,228.0,111.0,128.0
130,375,416,141,185,78,83,99,247.0,500.0,844.0,311.0,182.0,246.0,113.0,120.0
134,379,448,165,174,73,74,103,219.0,418.0,765.0,283.0,178.0,245.0,103.0,95.0
122,390,439,156,164,78,74,102,204.0,362.0,694.0,264.0,173.0,245.0,98.0,92.0
112,361,412,154,122,72,69,86,197.0,334.0,657.0,246.0,175.0,239.0,85.0,80.0
116,352,382,157,119,69,68,77,172.0,267.0,642.0,247.0,171.0,176.0,68.0,68.0
112,333,368,165,121,68,60,76,131.0,221.0,672.0,286.0,177.0,159.0,68.0,67.0
98,301,318,135,97,66,59,72,126.0,214.0,617.0,245.0,164.0,150.0,67.0,65.0
94,255,285,138,94,64,57,73,123.0,202.0,595.0,224.0,149.0,169.0,70.0,60.0
91,239,274,136,93,63,56,69,101.0,181.0,537.0,214.0,135.0,176.0,79.0,54.0
79,204,257,110,89,58,50,64,83.0,165.0,480.0,204.0,119.0,175.0,87.0,53.0
62,172,240,93,77,51,46,51,63.0,117.0,352.0,110.0,82.0,169.0,82.0,45.0
55,150,186,76,75,51,55,47,59.0,108.0,348.0,95.0,76.0,183.0,89.0,44.0
48,108,114,51,52,36,48,33,57.0,95.0,307.0,85.0,75.0,228.0,103.0,41.0
40,80,103,44,53,92,46,31,51.0,77.0,282.0,72.0,89.0,270.0,152.0,46.0
39,76,101,45,89,186,48,34,46.0,75.0,276.0,67.0,94.0,282.0,162.0,48.0
39,72,89,54,125,256,62,61,40.0,56.0,113.0,52.0,97.0,314.0,168.0,50.0
38,72,77,58,133,276,58,71,38.0,52.0,101.0,51.0,102.0,332.0,180.0,58.0
36,54,54,57,138,298,67,105,31.0,50.0,78.0,46.0,98.0,314.0,175.0,62.0
35,58,49,58,141,309,77,110,31.0,51.0,66.0,44.0,80.0,277.0,137.0,89.0
36,57,44,58,129,280,80,122,74.0,49.0,60.0,46.0,74.0,289.0,127.0,115.0
36,55,42,55,99,265,68,129,94.0,52.0,51.0,44.0,71.0,295.0,148.0,155.0
38,52,47,67,122,273,123,231,121.0,53.0,45.0,43.0,62.0,291.0,134.0,227.0
40,60,53,75,137,293,126,239,124.0,61.0,46.0,43.0,63.0,298.0,152.0,231.0
40,64,59,89,143,311,165,254,137.0,62.0,42.0,43.0,63.0,374.0,184.0,266.0
38,64,60,89,151,328,175,256,126.0,65.0,42.0,38.0,63.0,391.0,188.0,275.0
38,74,63,102,174,351,205,286,115.0,64.0,40.0,37.0,62.0,402.0,177.0,259.0
35,77,62,99,173,375,192,262,96.0,64.0,43.0,43.0,76.0,452.0,197.0,234.0
36,78,61,102,180,396,207,303,97.0,63.0,44.0,43.0,77.0,451.0,194.0,250.0
42,74,55,94,179,392,180,299,84.0,61.0,47.0,43.0,79.0,413.0,252.0,282.0
47,79,59,102,185,382,240,310,85.0,61.0,51.0,45.0,78.0,409.0,263.0,303.0
44,74,59,101,198,362,236,326,82.0,58.0,50.0,45.0,78.0,386.0,266.0,308.0
46,80,58,104,191,335,267,302,83.0,62.0,50.0,50.0,66.0,331.0,290.0,314.0
47,75,54,98,173,287,278,256,81.0,61.0,49.0,53.0,63.0,339.0,296.0,300.0
45,75,58,107,190,292,289,285,87.0,70.0,53.0,60.0,58.0,422.0,261.0,270.0
42,70,58,104,203,348,244,279,90.0,80.0,53.0,61.0,73.0,636.0,514.0,306.0
50,91,63,112,215,443,277,235,115.0,97.0,57.0,82.0,75.0,773.0,764.0,331.0
54,106,71,123,247,475,268,352,125.0,99.0,58.0,82.0,77.0,796.0,837.0,328.0
60,117,75,133,290,513,289,355,126.0,99.0,61.0,84.0,77.0,789.0,845.0,345.0
60,120,75,133,290,529,280,341,126.0,108.0,64.0,87.0,80.0,779.0,869.0,368.0
61,123,76,139,292,532,290,345,120.0,109.0,60.0,101.0,69.0,648.0,787.0,314.0
56,110,76,139,313,478,255,379,104.0,109.0,75.0,91.0,62.0,489.0,619.0,289.0
49,91,68,129,312,460,240,266,84.0,112.0,80.0,88.0,68.0,461.0,533.0,268.0
40,85,70,133,293,473,199,286,82.0,117.0,80.0,87.0,69.0,455.0,526.0,249.0
37,83,68,131,311,487,202,272,67.0,103.0,75.0,80.0,69.0,371.0,482.0,162.0
35,76,64,124,292,439,176,255,66.0,97.0,78.0,71.0,124.0,274.0,406.0,140.0
34,72,56,107,237,394,154,181,53.0,78.0,64.0,77.0,132.0,217.0,285.0,120.0
33,72,55,105,197,370,127,167,51.0,67.0,72.0,74.0,127.0,139.0,207.0,91.0
33,63,45,82,165,281,96,89,50.0,75.0,206.0,83.0,132.0,125.0,168.0,73.0
34,63,41,70,89,167,68,62,52.0,79.0,241.0,98.0,139.0,154.0,119.0,57.0
36,99,56,68,83,178,57,49,53.0,89.0,264.0,100.0,110.0,183.0,111.0,54.0
35,108,63,71,77,176,52,44,60.0,99.0,285.0,157.0,116.0,237.0,98.0,43.0
37,106,69,71,75,152,41,41,81.0,115.0,293.0,170.0,131.0,347.0,100.0,49.0
43,115,97,81,106,214,45,37,85.0,119.0,269.0,187.0,142.0,357.0,97.0,56.0
47,119,122,95,145,282,50,41,127.0,134.0,302.0,185.0,138.0,373.0,96.0,58.0
46,113,136,102,152,273,53,40,140.0,139.0,333.0,195.0,149.0,415.0,105.0,63.0
49,139,149,100,156,270,55,45,161.0,151.0,397.0,162.0,158.0,487.0,105.0,67.0
53,165,184,105,153,270,56,46,166.0,165.0,500.0,176.0,163.0,439.0,105.0,62.0
50,185,188,103,142,229,54,46,171.0,176.0,665.0,190.0,157.0,441.0,106.0,61.0
53,200,197,99,105,142,51,48,154.0,187.0,723.0,191.0,160.0,427.0,112.0,68.0
55,222,207,91,102,128,47,50,157.0,210.0,729.0,198.0,163.0,410.0,106.0,68.0
57,236,204,99,99,120,44,47,149.0,220.0,709.0,191.0,156.0,332.0,96.0,65.0
61,250,218,99,108,123,44,51,185.0,267.0,763.0,190.0,154.0,321.0,97.0,86.0
70,268,269,95,98,105,38,57,203.0,270.0,707.0,195.0,166.0,332.0,102.0,82.0
70,332,327,93,101,80,42,62,225.0,304.0,675.0,250.0,200.0,347.0,110.0,84.0
75,341,346,113,109,77,51,73,274.0,367.0,760.0,342.0,246.0,323.0,123.0,104.0
75,351,357,117,111,73,55,79,273.0,366.0,799.0,377.0,256.0,294.0,120.0,104.0
84,359,383,136,127,70,64,89,252.0,340.0,739.0,382.0,251.0,284.0,113.0,99.0
81,362,384,155,129,72,66,88,254.0,342.0,689.0,367.0,247.0,252.0,106.0,102.0
96,313,358,167,135,72,63,93,284.0,357.0,778.0,389.0,247.0,224.0,101.0,110.0
110,364,393,168,133,74,68,98,243.0,291.0,738.0,357.0,216.0,221.0,80.0,94.0
122,353,446,185,138,74,69,101,247.0,288.0,708.0,331.0,200.0,321.0,100.0,102.0
119,351,434,186,119,71,64,94,248.0,293.0,808.0,368.0,235.0,466.0,148.0,110.0
133,352,448,190,117,75,64,102,280.0,324.0,826.0,448.0,286.0,531.0,175.0,116.0
128,395,505,196,112,87,73,103,245.0,281.0,750.0,417.0,281.0,549.0,177.0,115.0
122,391,521,208,100,93,78,111,242.0,305.0,720.0,395.0,269.0,541.0,178.0,117.0
131,418,503,195,103,94,77,112,265.0,337.0,725.0,396.0,279.0,507.0,184.0,116.0
135,406,490,181,112,93,76,118,260.0,324.0,601.0,364.0,258.0,381.0,149.0,109.0
122,394,453,164,113,88,75,113,209.0,335.0,588.0,285.0,207.0,288.0,118.0,103.0
128,351,380,149,114,80,69,113,234.0,338.0,630.0,369.0,218.0,286.0,117.0,100.0
125,316,330,133,126,65,55,98,236.0,325.0,636.0,355.0,202.0,302.0,116.0,95.0
120,263,399,163,114,65,55,105,202.0,304.0,666.0,359.0,192.0,284.0,99.0,91.0
121,288,420,162,106,64,56,99,217.0,325.0,662.0,354.0,183.0,310.0,99.0,82.0
120,291,427,161,101,68,58,96,212.0,283.0,672.0,342.0,165.0,366.0,107.0,78.0
110,285,452,162,97,65,57,92,160.0,270.0,631.0,229.0,133.0,361.0,99.0,67.0
113,258,455,149,81,61,55,89,147.0,265.0,653.0,219.0,139.0,351.0,95.0,72.0
93,252,368,116,88,56,50,69,143.0,239.0,610.0,187.0,121.0,333.0,83.0,66.0
79,219,337,109,87,51,45,65,126.0,202.0,579.0,172.0,114.0,315.0,77.0,66.0
81,198,337,103,90,42,40,65,125.0,178.0,503.0,141.0,116.0,243.0,55.0,69.0
76,182,284,89,81,36,35,53,115.0,160.0,418.0,125.0,88.0,203.0,54.0,65.0
62,146,225,83,75,55,34,47,102.0,107.0,288.0,98.0,77.0,197.0,61.0,54.0
59,140,195,65,63,76,33,43,92.0,98.0,227.0,95.0,83.0,192.0,75.0,58.0
55,114,182,59,55,96,31,38,56.0,79.0,153.0,79.0,126.0,341.0,168.0,67.0
40,96,141,59,68,123,35,40,51.0,66.0,135.0,75.0,124.0,360.0,189.0,66.0
40,84,117,61,116,272,49,52,48.0,56.0,123.0,53.0,123.0,362.0,189.0,68.0
35,82,115,65,133,310,54,54,49.0,55.0,116.0,48.0,124.0,408.0,206.0,66.0
38,80,103,57,136,318,57,59,50.0,59.0,100.0,45.0,125.0,483.0,223.0,64.0
39,82,84,62,155,385,62,61,44.0,53.0,71.0,43.0,91.0,392.0,175.0,63.0
40,74,82,63,157,403,61,66,42.0,56.0,61.0,43.0,91.0,416.0,181.0,102.0
37,69,81,67,142,355,65,90,60.0,58.0,55.0,42.0,92.0,432.0,191.0,112.0
42,72,75,67,139,341,71,131,84.0,57.0,56.0,42.0,87.0,422.0,193.0,146.0
39,66,72,79,148,365,77,139,97.0,63.0,54.0,44.0,102.0,359.0,185.0,170.0
39,61,66,80,142,315,89,178,100.0,68.0,55.0,44.0,103.0,417.0,196.0,177.0
39,69,61,80,155,317,131,224,107.0,74.0,51.0,43.0,100.0,455.0,196.0,158.0
40,66,48,80,210,398,133,222,106.0,73.0,47.0,44.0,98.0,452.0,189.0,165.0
38,63,50,84,223,403,134,208,111.0,71.0,45.0,44.0,96.0,417.0,190.0,154.0
41,65,46,78,221,405,142,219,118.0,60.0,43.0,37.0,74.0,420.0,205.0,142.0
40,78,56,88,224,413,140,236,121.0,61.0,49.0,34.0,71.0,414.0,222.0,142.0
42,73,56,90,218,433,110,204,117.0,61.0,50.0,40.0,73.0,410.0,235.0,150.0
42,79,58,93,183,371,112,226,115.0,86.0,56.0,43.0,78.0,419.0,262.0,209.0
43,85,60,108,191,418,116,241,98.0,97.0,61.0,52.0,96.0,563.0,277.0,257.0
48,101,73,130,221,424,133,309,103.0,110.0,62.0,58.0,100.0,569.0,280.0,258.0
55,113,76,149,279,508,171,285,106.0,141.0,65.0,65.0,94.0,591.0,305.0,260.0
57,124,85,166,290,565,178,294,102.0,139.0,73.0,65.0,91.0,555.0,293.0,270.0
66,131,86,167,303,596,180,292,100.0,135.0,71.0,68.0,85.0,602.0,287.0,232.0
69,128,84,158,301,601,195,335,100.0,141.0,73.0,76.0,69.0,577.0,285.0,166.0
65,116,76,147,302,630,185,288,74.0,135.0,73.0,73.0,64.0,566.0,264.0,153.0
60,99,69,121,252,565,146,284,61.0,104.0,69.0,66.0,62.0,504.0,203.0,140.0
57,91,58,98,231,477,132,273,63.0,101.0,62.0,67.0,72.0,489.0,182.0,107.0
43,78,55,91,199,423,122,254,63.0,102.0,133.0,92.0,117.0,405.0,149.0,71.0
39,88,58,93,174,348,88,172,57.0,89.0,187.0,107.0,118.0,235.0,87.0,101.0
44,118,75,87,125,233,61,134,55.0,89.0,213.0,109.0,120.0,201.0,80.0,102.0
47,127,81,95,105,184,62,134,63.0,95.0,239.0,110.0,121.0,180.0,78.0,103.0
47,126,117,91,99,166,58,115,104.0,137.0,280.0,131.0,119.0,185.0,79.0,104.0
49,133,124,91,88,121,56,110,236.0,194.0,311.0,147.0,111.0,190.0,79.0,107.0
51,143,131,90,85,108,44,105,257.0,208.0,287.0,168.0,164.0,189.0,69.0,76.0
54,135,125,97,88,107,40,94,267.0,216.0,308.0,170.0,179.0,176.0,69.0,73.0
51,126,128,98,99,95,37,71,306.0,237.0,318.0,176.0,194.0,178.0,65.0,75.0
53,128,103,99,106,94,37,72,333.0,231.0,337.0,171.0,207.0,148.0,66.0,80.0
67,128,117,105,103,64,34,81,266.0,186.0,355.0,158.0,238.0,138.0,65.0,77.0
68,121,122,105,108,68,35,77,248.0,182.0,390.0,125.0,235.0,197.0,76.0,74.0
64,123,139,109,126,61,34,70,261.0,196.0,421.0,129.0,229.0,203.0,80.0,79.0
66,152,166,116,185,66,34,69,317.0,244.0,483.0,128.0,230.0,225.0,87.0,79.0
76,168,196,120,197,65,33,73,285.0,258.0,512.0,148.0,242.0,220.0,86.0,72.0
65,205,206,120,212,68,35,59,327.0,276.0,639.0,155.0,235.0,232.0,88.0,78.0
72,285,237,133,217,60,38,68,341.0,288.0,803.0,177.0,228.0,195.0,82.0,78.0
79,305,240,125,205,57,42,74,374.0,325.0,828.0,200.0,236.0,239.0,85.0,78.0
86,316,270,116,151,58,41,74,320.0,296.0,848.0,233.0,229.0,222.0,75.0,83.0
90,326,293,122,144,57,39,71,348.0,370.0,956.0,265.0,233.0,237.0,84.0,90.0
101,335,331,135,137,66,48,84,334.0,391.0,876.0,310.0,245.0,234.0,85.0,86.0
110,296,360,151,155,80,58,79,349.0,411.0,777.0,356.0,278.0,293.0,113.0,109.0
114,347,426,176,160,87,64,93,320.0,416.0,858.0,368.0,302.0,279.0,117.0,109.0
122,356,444,187,188,94,67,100,337.0,439.0,961.0,440.0,329.0,295.0,138.0,119.0
125,380,462,197,187,99,72,110,329.0,423.0,879.0,454.0,328.0,299.0,147.0,122.0
134,376,507,211,195,109,74,109,364.0,488.0,1001.0,475.0,338.0,325.0,175.0,160.0
134,371,572,198,192,108,77,124,351.0,481.0,979.0,457.0,317.0,280.0,160.0,150.0
144,393,556,184,220,123,87,125,338.0,451.0,893.0,453.0,303.0,268.0,163.0,152.0
147,380,565,184,221,120,89,126,316.0,441.0,775.0,382.0,278.0,245.0,148.0,139.0
151,368,534,172,223,118,88,122,319.0,405.0,758.0,343.0,274.0,253.0,142.0,139.0
141,366,509,150,206,104,86,118,264.0,317.0,623.0,292.0,232.0,216.0,102.0,93.0
133,383,420,150,189,96,81,102,252.0,288.0,688.0,279.0,204.0,221.0,98.0,93.0
120,304,402,145,151,70,65,92,240.0,286.0,702.0,253.0,176.0,215.0,88.0,90.0
102,319,348,127,109,60,60,84,217.0,242.0,650.0,227.0,164.0,211.0,86.0,93.0
85,295,354,120,108,56,56,78,166.0,210.0,614.0,212.0,147.0,178.0,69.0,80.0
76,277,312,107,106,55,49,73,119.0,155.0,581.0,169.0,118.0,173.0,67.0,75.0
69,230,284,96,103,50,40,66,95.0,143.0,452.0,116.0,117.0,134.0,76.0,65.0
60,211,262,79,98,47,46,52,91.0,125.0,356.0,120.0,126.0,208.0,124.0,60.0
55,152,243,81,99,120,55,46,69.0,117.0,317.0,108.0,117.0,243.0,147.0,49.0
47,131,220,79,112,240,67,70,66.0,98.0,273.0,97.0,92.0,262.0,159.0,51.0
40,106,166,78,118,276,80,73,65.0,75.0,176.0,76.0,95.0,300.0,171.0,54.0
35,89,151,68,120,286,81,76,66.0,72.0,159.0,70.0,100.0,364.0,196.0,54.0
27,66,93,69,124,298,80,78,66.0,63.0,147.0,56.0,82.0,413.0,199.0,48.0
29,65,89,67,146,368,82,81,60.0,55.0,152.0,52.0,82.0,432.0,196.0,50.0
29,59,87,64,138,339,73,65,58.0,54.0,114.0,50.0,79.0,455.0,198.0,46.0
31,54,70,60,139,326,72,88,123.0,114.0,103.0,50.0,78.0,496.0,220.0,42.0
31,51,60,62,159,376,72,87,130.0,118.0,87.0,49.0,77.0,479.0,207.0,40.0
37,59,52,65,175,411,77,90,141.0,120.0,84.0,44.0,75.0,423.0,187.0,46.0
36,51,46,60,167,374,74,87,145.0,128.0,68.0,46.0,78.0,416.0,189.0,45.0
35,52,49,62,157,358,74,81,143.0,125.0,67.0,47.0,80.0,407.0,184.0,94.0
35,51,51,65,162,371,74,92,121.0,81.0,55.0,50.0,83.0,383.0,158.0,115.0
37,55,47,70,145,319,91,123,120.0,80.0,55.0,51.0,70.0,409.0,157.0,143.0
33,50,46,70,149,369,100,124,127.0,76.0,61.0,54.0,83.0,417.0,153.0,160.0
35,54,48,76,151,355,107,139,127.0,80.0,63.0,55.0,82.0,422.0,166.0,181.0
38,53,46,75,157,368,116,169,142.0,87.0,65.0,51.0,82.0,410.0,178.0,173.0
40,54,42,72,165,355,121,207,130.0,90.0,69.0,52.0,85.0,389.0,179.0,165.0
37,56,42,69,192,384,126,201,132.0,88.0,70.0,49.0,88.0,383.0,188.0,152.0
37,59,47,73,191,307,131,224,119.0,98.0,70.0,48.0,83.0,367.0,188.0,161.0
36,59,50,79,205,338,132,242,131.0,91.0,71.0,47.0,92.0,371.0,172.0,143.0
40,62,54,93,222,351,149,275,128.0,95.0,76.0,48.0,103.0,424.0,172.0,165.0
42,77,58,104,221,363,178,267,126.0,92.0,77.0,54.0,97.0,433.0,168.0,168.0
46,87,67,124,229,384,188,276,123.0,91.0,72.0,54.0,93.0,388.0,152.0,203.0
54,95,71,135,233,393,198,305,119.0,87.0,68.0,52.0,87.0,391.0,146.0,193.0
53,99,72,134,238,387,212,325,115.0,90.0,69.0,53.0,77.0,409.0,134.0,245.0
50,105,75,137,235,364,204,287,121.0,91.0,58.0,54.0,70.0,386.0,125.0,233.0
54,103,77,143,247,378,182,316,114.0,101.0,52.0,48.0,75.0,361.0,123.0,238.0
56,94,71,136,251,357,170,349,108.0,105.0,55.0,51.0,84.0,355.0,111.0,209.0
48,83,66,124,258,353,151,311,104.0,102.0,56.0,59.0,97.0,340.0,107.0,201.0
48,77,63,122,241,305,121,274,95.0,105.0,47.0,58.0,100.0,269.0,103.0,129.0
47,66,57,112,230,291,106,268,162.0,175.0,62.0,63.0,98.0,191.0,86.0,112.0
41,57,48,97,205,238,87,199,309.0,245.0,97.0,97.0,128.0,156.0,86.0,109.0
50,82,50,86,167,177,65,94,314.0,270.0,111.0,99.0,139.0,146.0,89.0,101.0
69,98,68,126,155,124,65,96,339.0,283.0,130.0,110.0,185.0,153.0,95.0,101.0
69,106,76,125,145,114,61,82,340.0,286.0,147.0,116.0,192.0,139.0,96.0,98.0
70,108,92,129,139,107,61,80,307.0,248.0,155.0,126.0,192.0,130.0,91.0,97.0
71,107,92,128,138,106,62,72,163.0,178.0,144.0,111.0,213.0,116.0,80.0,80.0
61,89,93,126,128,98,60,66,196.0,158.0,146.0,113.0,205.0,117.0,74.0,73.0
47,79,84,89,97,82,42,47,165.0,143.0,157.0,103.0,178.0,101.0,65.0,63.0
46,74,87,83,90,78,40,43,166.0,136.0,149.0,101.0,186.0,105.0,61.0,67.0
44,78,78,74,80,56,37,41,174.0,138.0,177.0,99.0,199.0,101.0,58.0,65.0
42,95,84,72,74,50,36,42,173.0,140.0,202.0,125.0,174.0,98.0,53.0,55.0
42,107,113,71,77,47,31,45,162.0,125.0,206.0,134.0,180.0,84.0,49.0,56.0
39,113,113,67,65,45,31,53,152.0,128.0,244.0,139.0,182.0,103.0,47.0,55.0
40,117,113,74,67,46,33,51,184.0,148.0,362.0,153.0,168.0,104.0,45.0,47.0
45,134,129,76,83,43,35,53,189.0,184.0,402.0,172.0,158.0,108.0,51.0,66.0
52,145,162,87,93,48,35,53,193.0,204.0,412.0,150.0,135.0,110.0,56.0,75.0
68,182,180,98,100,53,40,51,205.0,270.0,537.0,211.0,136.0,125.0,66.0,96.0
84,184,193,112,113,56,40,45,304.0,412.0,630.0,276.0,160.0,159.0,100.0,133.0
115,212,271,134,129,59,45,56,307.0,458.0,599.0,287.0,158.0,158.0,105.0,138.0
129,291,348,158,160,82,59,81,312.0,477.0,648.0,289.0,185.0,179.0,109.0,137.0
144,301,366,162,178,89,62,87,323.0,489.0,687.0,308.0,200.0,215.0,112.0,134.0
147,315,385,169,184,90,63,96,317.0,498.0,645.0,276.0,199.0,216.0,110.0,129.0
161,325,398,164,181,89,63,98,255.0,409.0,596.0,262.0,193.0,206.0,87.0,96.0
151,361,389,175,187,91,64,103,257.0,393.0,720.0,268.0,196.0,224.0,82.0,102.0
160,376,386,177,162,73,53,98,268.0,365.0,663.0,294.0,179.0,246.0,81.0,101.0
167,382,379,185,144,68,53,95,272.0,443.0,718.0,297.0,172.0,229.0,83.0,107.0
179,380,397,190,135,69,52,89,258.0,431.0,777.0,340.0,186.0,232.0,86.0,103.0
191,447,423,215,162,71,55,97,240.0,430.0,806.0,324.0,161.0,213.0,85.0,103.0
196,418,420,224,176,74,59,103,236.0,475.0,727.0,324.0,171.0,197.0,89.0,97.0
199,357,387,228,178,78,61,99,247.0,493.0,801.0,323.0,166.0,154.0,88.0,110.0
192,356,387,218,181,78,62,103,236.0,454.0,786.0,350.0,188.0,170.0,95.0,105.0
191,359,359,217,188,79,66,109,245.0,455.0,792.0,349.0,182.0,164.0,91.0,105.0
163,268,353,198,164,82,69,111,235.0,460.0,768.0,335.0,178.0,171.0,93.0,102.0
167,271,335,163,142,78,66,107,218.0,400.0,762.0,335.0,170.0,170.0,91.0,97.0
150,264,318,137,132,72,61,101,172.0,378.0,707.0,312.0,161.0,201.0,97.0,76.0
138,248,319,135,122,65,58,96,158.0,317.0,662.0,260.0,125.0,201.0,91.0,73.0
114,212,310,113,101,58,53,89,129.0,273.0,582.0,213.0,108.0,214.0,96.0,65.0
110,212,265,92,101,50,46,73,119.0,234.0,528.0,200.0,104.0,221.0,96.0,60.0
79,203,250,90,77,43,39,50,88.0,190.0,462.0,162.0,90.0,227.0,93.0,57.0
60,193,225,77,73,42,39,48,76.0,165.0,399.0,133.0,82.0,197.0,80.0,50.0
54,174,181,63,66,39,35,41,59.0,145.0,313.0,128.0,76.0,170.0,75.0,42.0
50,161,135,58,62,37,34,37,51.0,117.0,185.0,76.0,67.0,166.0,66.0,35.0
40,133,107,53,48,31,28,33,43.0,96.0,133.0,64.0,65.0,156.0,61.0,35.0
36,83,70,43,46,35,28,31,35.0,69.0,106.0,61.0,69.0,147.0,64.0,35.0
40,78,57,38,42,37,30,27,52.0,67.0,106.0,62.0,70.0,144.0,64.0,40.0
39,75,52,42,42,40,33,27,66.0,60.0,95.0,53.0,72.0,274.0,117.0,39.0
38,55,50,42,44,51,33,30,70.0,61.0,80.0,51.0,68.0,274.0,120.0,43.0
38,56,50,44,82,154,40,31,71.0,56.0,66.0,50.0,62.0,286.0,126.0,47.0
37,58,46,52,94,180,43,33,72.0,55.0,64.0,47.0,61.0,290.0,129.0,49.0
33,56,49,61,103,194,43,34,65.0,57.0,54.0,45.0,62.0,305.0,142.0,45.0
29,56,49,60,113,220,44,35,63.0,63.0,56.0,45.0,58.0,196.0,105.0,58.0
27,59,49,61,118,230,45,34,65.0,62.0,54.0,43.0,59.0,197.0,115.0,67.0
26,53,52,66,103,197,43,34,73.0,72.0,58.0,42.0,63.0,188.0,114.0,71.0
29,56,57,71,105,249,46,39,78.0,76.0,55.0,41.0,60.0,185.0,130.0,83.0
35,56,56,68,102,271,46,101,90.0,72.0,54.0,39.0,58.0,308.0,140.0,89.0
36,58,58,77,136,291,62,152,89.0,75.0,54.0,42.0,59.0,358.0,150.0,93.0
38,59,58,86,166,393,80,157,91.0,72.0,50.0,40.0,62.0,366.0,154.0,91.0
42,60,58,91,184,420,90,171,90.0,64.0,47.0,42.0,63.0,435.0,175.0,99.0
39,54,52,83,183,399,96,178,91.0,59.0,48.0,46.0,64.0,465.0,180.0,114.0
37,56,54,86,199,425,99,204,84.0,67.0,44.0,47.0,65.0,403.0,181.0,124.0
38,59,51,80,195,428,93,184,90.0,72.0,48.0,45.0,65.0,380.0,181.0,167.0
39,58,55,81,205,390,118,201,86.0,78.0,56.0,48.0,68.0,434.0,176.0,167.0
42,68,57,83,223,394,138,197,89.0,89.0,57.0,47.0,62.0,401.0,176.0,184.0
43,69,56,88,233,406,137,210,85.0,99.0,59.0,44.0,60.0,375.0,158.0,175.0
42,66,52,90,237,385,138,219,82.0,98.0,60.0,47.0,59.0,391.0,156.0,169.0
41,62,54,93,240,374,142,221,69.0,89.0,57.0,43.0,60.0,406.0,154.0,121.0
38,66,49,90,229,379,125,209,67.0,89.0,49.0,41.0,51.0,333.0,146.0,118.0
36,60,43,81,202,349,95,205,55.0,82.0,52.0,41.0,51.0,290.0,110.0,76.0
35,66,42,78,200,347,93,186,51.0,70.0,51.0,40.0,49.0,284.0,109.0,59.0
37,66,43,73,188,323,89,113,43.0,63.0,50.0,36.0,46.0,233.0,75.0,49.0
38,68,42,68,163,302,80,85,37.0,59.0,46.0,35.0,43.0,191.0,61.0,43.0
40,60,41,60,131,210,53,66,36.0,50.0,45.0,39.0,51.0,185.0,59.0,41.0
38,55,41,53,117,186,51,53,36.0,44.0,40.0,42.0,54.0,166.0,56.0,39.0
36,45,42,50,93,110,39,43,37.0,43.0,42.0,46.0,54.0,141.0,51.0,39.0
29,45,48,48,65,92,32,35,36.0,39.0,40.0,62.0,58.0,137.0,51.0,37.0
28,41,49,48,49,72,26,27,35.0,44.0,44.0,64.0,57.0,111.0,45.0,31.0
24,41,51,46,49,69,24,26,37.0,49.0,50.0,64.0,65.0,124.0,44.0,31.0
24,43,51,49,50,75,24,23,65.0,68.0,63.0,68.0,68.0,145.0,48.0,33.0
25,45,52,45,47,74,23,24,65.0,69.0,118.0,93.0,74.0,154.0,54.0,34.0
30,52,51,49,49,62,23,23,74.0,86.0,230.0,113.0,107.0,176.0,56.0,41.0
31,60,64,58,50,65,22,23,75.0,87.0,263.0,117.0,107.0,172.0,55.0,41.0
35,73,78,60,67,103,24,29,75.0,89.0,274.0,119.0,100.0,184.0,60.0,40.0
40,86,88,67,71,101,26,32,52.0,81.0,301.0,120.0,99.0,174.0,59.0,41.0
41,99,93,69,77,109,27,32,56.0,100.0,347.0,120.0,100.0,172.0,55.0,40.0
42,113,95,70,85,120,32,36,58.0,120.0,346.0,110.0,71.0,147.0,56.0,39.0
41,134,116,71,85,119,37,36,62.0,125.0,379.0,124.0,91.0,172.0,54.0,39.0
40,141,141,80,77,89,36,35,62.0,126.0,393.0,126.0,92.0,161.0,52.0,43.0
34,152,144,83,73,99,38,36,63.0,127.0,405.0,128.0,98.0,164.0,52.0,43.0
39,150,150,82,86,140,41,36,76.0,139.0,396.0,122.0,107.0,182.0,55.0,48.0
36,150,166,83,80,146,39,35,72.0,153.0,376.0,163.0,138.0,229.0,60.0,54.0
39,159,162,79,89,147,38,42,81.0,191.0,430.0,161.0,140.0,276.0,67.0,57.0
42,174,146,78,92,151,43,43,85.0,216.0,528.0,170.0,145.0,280.0,71.0,62.0
56,194,185,83,97,141,45,54,136.0,276.0,595.0,213.0,153.0,274.0,77.0,71.0
65,209,217,97,99,95,47,59,143.0,300.0,648.0,233.0,151.0,288.0,74.0,67.0
84,232,311,117,113,75,49,63,192.0,301.0,704.0,254.0,136.0,273.0,79.0,72.0
100,223,348,121,108,72,50,66,246.0,300.0,767.0,278.0,143.0,207.0,78.0,77.0
112,235,407,142,131,63,51,68,258.0,300.0,796.0,321.0,161.0,234.0,78.0,76.0
112,240,422,149,140,65,49,63,237.0,252.0,748.0,308.0,154.0,254.0,77.0,70.0
108,251,449,143,142,68,49,66,238.0,225.0,711.0,307.0,167.0,233.0,86.0,76.0
95,240,406,129,131,64,46,63,217.0,290.0,677.0,300.0,177.0,230.0,85.0,72.0
86,277,402,128,137,66,48,64,165.0,283.0,573.0,312.0,191.0,259.0,94.0,70.0
77,261,390,107,121,69,49,68,144.0,291.0,434.0,304.0,190.0,232.0,95.0,69.0
89,257,394,115,118,75,58,73,163.0,303.0,462.0,298.0,195.0,208.0,93.0,72.0
106,259,368,119,103,67,52,70,158.0,307.0,505.0,284.0,178.0,203.0,88.0,67.0
116,255,367,131,111,70,56,76,141.0,248.0,552.0,274.0,159.0,186.0,81.0,64.0
113,219,363,133,107,66,52,71,127.0,252.0,548.0,246.0,141.0,181.0,76.0,64.0
112,218,335,136,98,58,49,69,126.0,226.0,545.0,204.0,123.0,244.0,72.0,62.0
100,201,294,116,87,53,39,60,99.0,209.0,525.0,196.0,111.0,244.0,79.0,57.0
84,177,278,119,86,53,40,58,86.0,185.0,470.0,196.0,110.0,250.0,77.0,55.0
71,162,254,99,71,48,35,50,68.0,153.0,360.0,154.0,106.0,253.0,76.0,50.0
66,142,217,90,62,47,33,46,55.0,107.0,311.0,124.0,76.0,232.0,65.0,43.0
55,127,175,76,57,45,30,37,51.0,91.0,312.0,104.0,63.0,166.0,64.0,41.0
49,103,165,66,50,33,25,33,43.0,69.0,261.0,88.0,56.0,164.0,57.0,41.0
37,76,140,50,43,34,23,30,36.0,57.0,196.0,73.0,56.0,145.0,54.0,41.0
35,64,124,49,44,40,23,26,36.0,48.0,171.0,67.0,51.0,129.0,52.0,39.0
35,58,98,49,47,62,23,25,33.0,46.0,153.0,57.0,46.0,114.0,50.0,38.0
32,45,84,46,44,78,24,24,33.0,39.0,94.0,44.0,46.0,136.0,66.0,36.0
33,44,67,46,47,81,29,23,32.0,39.0,83.0,43.0,46.0,140.0,65.0,35.0
34,40,50,43,51,98,29,23,35.0,44.0,70.0,39.0,41.0,161.0,72.0,34.0
31,43,41,43,58,114,30,25,35.0,47.0,67.0,39.0,40.0,182.0,80.0,33.0
30,46,41,44,67,156,32,25,37.0,43.0,48.0,36.0,36.0,182.0,80.0,33.0
31,48,41,46,69,160,34,25,38.0,48.0,48.0,33.0,31.0,201.0,96.0,41.0
30,46,42,47,76,165,35,26,45.0,47.0,46.0,33.0,31.0,200.0,109.0,112.0
32,48,44,56,103,211,56,75,45.0,55.0,50.0,37.0,39.0,330.0,148.0,124.0
32,46,45,58,104,210,59,84,49.0,60.0,47.0,39.0,41.0,380.0,161.0,153.0
38,52,49,58,137,251,72,150,49.0,67.0,48.0,40.0,45.0,392.0,175.0,159.0
36,57,49,61,166,314,78,161,49.0,67.0,46.0,42.0,47.0,386.0,170.0,159.0
39,57,49,64,171,341,84,164,51.0,73.0,47.0,43.0,49.0,434.0,185.0,133.0
36,57,47,66,170,330,93,195,58.0,70.0,40.0,42.0,45.0,345.0,179.0,177.0
38,60,48,72,188,384,111,207,62.0,66.0,39.0,45.0,45.0,319.0,184.0,193.0
40,61,48,81,176,356,114,188,65.0,70.0,43.0,51.0,52.0,389.0,194.0,210.0
42,59,49,81,175,317,124,193,71.0,70.0,45.0,49.0,50.0,388.0,190.0,217.0
44,63,52,82,196,331,125,226,76.0,64.0,44.0,50.0,52.0,392.0,202.0,268.0
49,75,62,90,208,378,147,231,77.0,62.0,52.0,51.0,53.0,392.0,197.0,239.0
48,78,65,91,207,359,149,267,74.0,66.0,54.0,49.0,50.0,378.0,187.0,215.0
44,74,63,90,217,379,142,278,76.0,61.0,55.0,45.0,44.0,349.0,178.0,217.0
42,73,62,90,212,380,144,284,72.0,64.0,56.0,46.0,45.0,343.0,184.0,218.0
40,73,64,100,202,363,143,266,64.0,67.0,55.0,46.0,47.0,292.0,144.0,147.0
36,60,61,96,209,328,114,232,58.0,64.0,47.0,45.0,47.0,283.0,120.0,151.0
37,56,61,99,216,318,96,216,55.0,60.0,46.0,40.0,49.0,262.0,111.0,141.0
35,52,60,94,196,278,96,185,44.0,60.0,47.0,40.0,46.0,176.0,85.0,103.0
34,51,61,92,180,254,73,162,40.0,56.0,45.0,41.0,45.0,148.0,56.0,80.0
31,49,53,78,162,222,64,147,36.0,55.0,46.0,41.0,46.0,109.0,52.0,70.0
29,47,44,66,118,168,47,142,33.0,56.0,45.0,46.0,54.0,102.0,50.0,41.0
30,43,39,52,68,87,35,61,30.0,56.0,43.0,52.0,55.0,70.0,35.0,39.0
32,46,36,50,61,74,28,51,31.0,49.0,42.0,57.0,59.0,57.0,34.0,34.0
30,46,38,53,59,65,26,45,34.0,48.0,45.0,74.0,66.0,49.0,32.0,31.0
34,45,39,57,50,54,25,40,36.0,43.0,48.0,82.0,69.0,42.0,31.0,28.0
34,50,41,64,51,48,24,34,32.0,39.0,52.0,80.0,74.0,35.0,27.0,27.0
32,50,43,76,47,35,22,28,36.0,39.0,62.0,87.0,93.0,39.0,29.0,27.0
32,50,44,75,42,29,23,26,39.0,67.0,133.0,106.0,110.0,55.0,35.0,34.0
36,65,49,78,40,25,22,23,39.0,81.0,149.0,99.0,126.0,67.0,42.0,33.0
33,83,59,85,52,49,21,24,37.0,82.0,161.0,97.0,137.0,108.0,53.0,37.0
37,113,72,80,50,52,20,23,39.0,88.0,178.0,110.0,141.0,131.0,66.0,41.0
39,113,74,77,48,55,23,27,55.0,98.0,225.0,130.0,143.0,155.0,67.0,42.0
39,131,106,83,67,60,28,33,61.0,94.0,281.0,133.0,142.0,167.0,69.0,41.0
39,130,117,79,70,73,32,36,64.0,97.0,386.0,144.0,133.0,167.0,69.0,43.0
42,138,150,72,68,62,35,38,88.0,137.0,437.0,168.0,140.0,161.0,67.0,47.0
42,150,169,91,72,63,38,39,92.0,140.0,459.0,168.0,134.0,150.0,57.0,46.0
44,210,196,91,80,63,39,39,85.0,139.0,509.0,155.0,120.0,160.0,69.0,46.0
45,207,194,87,68,58,35,37,82.0,134.0,484.0,159.0,132.0,151.0,68.0,44.0
46,221,220,97,70,45,33,35,83.0,142.0,505.0,170.0,133.0,150.0,67.0,46.0
43,214,205,108,67,41,31,34,69.0,147.0,532.0,152.0,122.0,141.0,66.0,44.0
45,238,196,94,71,38,30,34,68.0,153.0,523.0,149.0,123.0,142.0,66.0,46.0
49,210,186,108,69,38,28,38,83.0,179.0,518.0,151.0,130.0,161.0,53.0,47.0
48,226,189,108,70,41,28,39,88.0,196.0,532.0,139.0,104.0,162.0,52.0,50.0
62,232,191,115,82,40,28,44,85.0,196.0,479.0,129.0,97.0,172.0,55.0,47.0
69,239,202,103,86,40,28,45,96.0,185.0,443.0,136.0,86.0,174.0,54.0,43.0
90,217,211,106,81,38,26,51,97.0,179.0,460.0,139.0,84.0,176.0,55.0,41.0
90,207,221,93,79,37,27,52,88.0,165.0,406.0,146.0,72.0,124.0,53.0,43.0
90,187,218,91,79,34,28,51,86.0,161.0,442.0,154.0,77.0,119.0,50.0,39.0
91,192,211,86,61,32,27,50,97.0,158.0,443.0,165.0,79.0,128.0,46.0,42.0
91,190,198,98,61,30,25,53,86.0,169.0,504.0,190.0,89.0,132.0,56.0,46.0
69,172,191,101,65,35,28,47,84.0,176.0,549.0,199.0,92.0,142.0,59.0,48.0
74,191,187,104,74,39,30,46,87.0,172.0,607.0,213.0,104.0,154.0,59.0,47.0
73,206,193,103,76,42,33,47,87.0,183.0,604.0,211.0,104.0,173.0,64.0,48.0
67,186,168,95,78,42,35,49,89.0,209.0,658.0,228.0,108.0,164.0,65.0,49.0
72,181,195,89,77,43,35,50,86.0,188.0,641.0,205.0,105.0,185.0,62.0,48.0
73,202,251,88,80,42,36,54,92.0,202.0,685.0,210.0,118.0,191.0,69.0,63.0
69,208,277,81,75,38,33,51,100.0,218.0,766.0,197.0,112.0,191.0,73.0,63.0
72,204,285,85,78,40,34,56,114.0,220.0,847.0,226.0,129.0,184.0,76.0,68.0
71,220,300,81,82,42,36,58,112.0,205.0,832.0,220.0,135.0,191.0,79.0,68.0
62,241,288,78,83,46,41,58,125.0,237.0,857.0,229.0,139.0,161.0,76.0,75.0
67,235,252,68,80,49,43,61,121.0,221.0,802.0,214.0,139.0,276.0,136.0,70.0
69,222,213,66,83,59,48,67,109.0,195.0,671.0,205.0,142.0,347.0,179.0,73.0
67,214,193,68,114,173,73,63,91.0,166.0,523.0,160.0,128.0,428.0,213.0,71.0
60,188,164,70,152,250,79,80,81.0,147.0,449.0,115.0,112.0,440.0,217.0,71.0
58,158,148,67,158,292,82,87,53.0,83.0,293.0,83.0,100.0,481.0,238.0,62.0
50,127,103,68,161,314,83,83,47.0,75.0,212.0,80.0,82.0,460.0,231.0,54.0
37,89,87,70,173,376,85,84,42.0,85.0,281.0,79.0,70.0,440.0,214.0,64.0
36,74,71,68,162,363,72,95,44.0,86.0,269.0,77.0,70.0,404.0,205.0,111.0
36,70,73,67,150,372,77,105,41.0,79.0,255.0,75.0,68.0,391.0,211.0,118.0
33,59,70,72,151,373,103,132,46.0,72.0,257.0,70.0,61.0,364.0,198.0,124.0
35,59,70,70,153,371,112,143,50.0,72.0,250.0,63.0,59.0,339.0,195.0,127.0
34,57,61,68,148,331,110,141,52.0,63.0,142.0,51.0,54.0,310.0,185.0,126.0
36,61,56,64,146,328,111,154,51.0,61.0,118.0,50.0,43.0,264.0,155.0,99.0
33,57,45,69,131,276,104,155,62.0,58.0,92.0,44.0,50.0,269.0,148.0,122.0
37,65,49,67,124,264,93,186,62.0,53.0,68.0,43.0,51.0,259.0,145.0,134.0
35,64,49,71,119,244,95,229,70.0,55.0,61.0,38.0,50.0,268.0,120.0,167.0
37,61,51,70,120,228,99,239,71.0,49.0,53.0,35.0,51.0,261.0,114.0,188.0
41,59,50,74,145,236,98,249,97.0,51.0,49.0,36.0,52.0,284.0,122.0,194.0
44,63,55,72,151,245,114,269,90.0,47.0,52.0,37.0,47.0,292.0,125.0,193.0
43,59,54,77,168,252,123,246,89.0,52.0,50.0,37.0,55.0,303.0,124.0,187.0
44,65,61,88,202,293,125,207,83.0,50.0,47.0,41.0,57.0,282.0,130.0,180.0
45,66,60,91,208,301,137,223,86.0,58.0,54.0,40.0,57.0,286.0,173.0,188.0
43,63,60,90,194,286,140,259,59.0,60.0,59.0,46.0,61.0,290.0,173.0,182.0
43,59,52,89,194,273,135,262,63.0,63.0,53.0,50.0,62.0,298.0,168.0,190.0
41,57,49,90,202,272,118,270,63.0,67.0,61.0,49.0,61.0,274.0,169.0,199.0
41,57,48,96,204,286,117,280,61.0,64.0,60.0,46.0,61.0,280.0,160.0,182.0
43,58,53,105,205,280,106,279,54.0,59.0,55.0,46.0,60.0,265.0,108.0,146.0
40,62,56,111,225,307,115,227,49.0,54.0,52.0,42.0,54.0,216.0,98.0,139.0
39,63,54,107,216,302,108,191,43.0,56.0,51.0,36.0,53.0,178.0,91.0,100.0
38,66,54,99,195,273,107,163,40.0,47.0,46.0,52.0,49.0,162.0,70.0,66.0
36,59,48,80,157,211,93,138,38.0,46.0,68.0,112.0,97.0,125.0,55.0,52.0
31,53,42,66,134,192,82,85,41.0,48.0,70.0,119.0,109.0,128.0,58.0,53.0
33,56,42,70,84,118,56,73,37.0,47.0,68.0,121.0,110.0,119.0,54.0,51.0
31,56,48,70,78,107,49,58,33.0,42.0,71.0,125.0,114.0,109.0,47.0,45.0
33,52,47,72,69,92,38,48,35.0,41.0,70.0,129.0,124.0,109.0,45.0,42.0
33,51,48,71,62,79,33,36,35.0,37.0,51.0,91.0,112.0,83.0,37.0,41.0
35,54,47,72,64,66,29,33,34.0,37.0,92.0,88.0,109.0,76.0,34.0,35.0
31,53,45,59,56,49,25,30,35.0,49.0,132.0,94.0,110.0,85.0,38.0,32.0
33,55,48,59,51,44,21,31,40.0,52.0,155.0,90.0,107.0,95.0,42.0,35.0
31,64,49,57,53,46,21,31,38.0,60.0,180.0,93.0,104.0,129.0,51.0,39.0
31,69,56,58,51,44,21,29,38.0,68.0,241.0,96.0,83.0,167.0,58.0,35.0
30,75,61,53,43,45,22,29,42.0,82.0,340.0,124.0,80.0,177.0,63.0,41.0
30,83,69,56,43,42,21,29,53.0,110.0,454.0,130.0,87.0,175.0,65.0,45.0
39,134,86,65,45,46,26,28,67.0,142.0,473.0,165.0,117.0,176.0,66.0,44.0
46,167,107,70,49,45,26,37,77.0,173.0,537.0,167.0,135.0,174.0,65.0,48.0
57,199,140,88,55,43,27,40,85.0,180.0,549.0,177.0,135.0,147.0,61.0,51.0
60,219,155,97,65,47,31,41,100.0,185.0,590.0,196.0,138.0,134.0,61.0,52.0
63,226,199,101,71,48,32,45,109.0,193.0,561.0,200.0,137.0,141.0,67.0,56.0
60,262,233,105,84,46,34,49,126.0,214.0,663.0,187.0,118.0,138.0,68.0,62.0
75,276,253,119,92,51,42,58,148.0,223.0,778.0,234.0,111.0,129.0,67.0,60.0
81,273,269,122,101,51,45,59,158.0,227.0,816.0,244.0,121.0,152.0,72.0,69.0
91,296,308,122,100,48,45,67,153.0,242.0,778.0,233.0,117.0,154.0,74.0,72.0
98,308,301,118,102,47,45,69,160.0,261.0,775.0,254.0,139.0,177.0,78.0,68.0
106,282,280,115,93,48,46,69,176.0,290.0,750.0,280.0,157.0,189.0,78.0,64.0
97,301,309,113,92,46,46,70,206.0,292.0,668.0,321.0,157.0,187.0,75.0,69.0
93,351,322,104,86,48,48,74,202.0,314.0,624.0,341.0,161.0,175.0,76.0,58.0
100,337,323,111,85,49,49,80,200.0,304.0,623.0,336.0,162.0,176.0,73.0,54.0
100,329,319,115,78,51,49,77,194.0,285.0,617.0,329.0,153.0,175.0,70.0,50.0
98,338,347,121,86,51,46,74,170.0,251.0,592.0,309.0,134.0,177.0,71.0,48.0
96,306,319,114,81,47,40,68,103.0,234.0,519.0,238.0,120.0,170.0,75.0,41.0
96,241,286,112,81,46,36,64,115.0,214.0,505.0,210.0,115.0,181.0,77.0,45.0
82,244,269,110,86,47,35,52,117.0,216.0,546.0,227.0,128.0,194.0,80.0,44.0
79,261,286,119,90,48,37,56,111.0,202.0,514.0,210.0,116.0,177.0,74.0,46.0
86,235,250,113,83,49,38,65,100.0,181.0,467.0,210.0,111.0,161.0,71.0,46.0
86,216,250,113,80,50,39,60,101.0,183.0,438.0,212.0,111.0,180.0,75.0,50.0
92,203,251,109,73,49,39,58,78.0,171.0,478.0,216.0,104.0,158.0,64.0,49.0
89,170,219,98,71,46,38,54,73.0,164.0,395.0,190.0,84.0,140.0,57.0,47.0
89,143,203,87,64,41,39,51,63.0,163.0,420.0,196.0,88.0,145.0,56.0,45.0
75,123,205,82,63,35,36,41,66.0,144.0,413.0,183.0,86.0,149.0,57.0,44.0
72,144,187,73,61,30,34,42,58.0,115.0,400.0,159.0,79.0,118.0,44.0,38.0
54,139,186,74,60,30,32,40,54.0,92.0,345.0,119.0,69.0,118.0,44.0,33.0
48,138,181,69,50,26,27,39,46.0,71.0,320.0,111.0,62.0,119.0,43.0,29.0
36,119,148,60,46,24,21,35,42.0,60.0,255.0,87.0,49.0,143.0,82.0,33.0
30,111,124,57,44,55,23,31,36.0,49.0,195.0,72.0,47.0,161.0,90.0,35.0
30,79,109,55,56,116,29,29,36.0,50.0,182.0,63.0,47.0,188.0,103.0,34.0
31,74,77,47,69,143,33,28,33.0,44.0,98.0,47.0,47.0,211.0,118.0,38.0
32,67,58,48,80,181,35,37,33.0,40.0,82.0,37.0,47.0,232.0,125.0,40.0
30,54,45,48,89,221,41,82,33.0,41.0,58.0,39.0,45.0,235.0,123.0,43.0
31,52,46,48,96,249,49,88,38.0,47.0,49.0,38.0,49.0,235.0,126.0,45.0
31,50,38,45,102,245,54,89,52.0,45.0,45.0,41.0,51.0,267.0,142.0,81.0
32,50,42,56,95,236,63,97,60.0,53.0,46.0,46.0,54.0,269.0,148.0,103.0
36,46,43,60,117,280,72,122,65.0,56.0,49.0,47.0,55.0,274.0,151.0,112.0
38,44,43,60,126,290,86,106,77.0,65.0,52.0,46.0,65.0,281.0,179.0,154.0
39,51,46,63,122,276,89,123,81.0,60.0,61.0,46.0,67.0,340.0,214.0,193.0
40,56,47,74,123,290,93,133,78.0,70.0,61.0,44.0,62.0,336.0,216.0,209.0
40,53,47,70,134,335,103,168,74.0,67.0,59.0,38.0,60.0,340.0,210.0,217.0
35,62,54,79,138,360,115,169,74.0,66.0,54.0,34.0,60.0,336.0,227.0,224.0
36,68,55,83,132,354,127,210,75.0,58.0,53.0,40.0,50.0,320.0,204.0,201.0
36,65,54,80,147,356,138,205,73.0,57.0,43.0,38.0,46.0,305.0,172.0,188.0
37,62,54,81,148,346,155,205,75.0,48.0,42.0,41.0,49.0,327.0,160.0,177.0
36,65,53,86,149,307,174,203,78.0,47.0,41.0,45.0,52.0,362.0,161.0,181.0
44,72,52,92,165,329,172,245,91.0,49.0,44.0,47.0,61.0,462.0,155.0,191.0
45,68,50,92,169,322,177,267,86.0,57.0,43.0,48.0,74.0,553.0,186.0,215.0
46,72,53,103,204,332,171,276,86.0,61.0,42.0,56.0,74.0,599.0,212.0,204.0
45,79,57,108,248,395,168,275,80.0,59.0,44.0,53.0,75.0,581.0,223.0,213.0
47,83,61,114,289,479,215,283,76.0,68.0,43.0,59.0,73.0,578.0,228.0,218.0
43,75,60,115,288,417,213,276,57.0,75.0,45.0,65.0,67.0,503.0,212.0,198.0
41,84,66,131,325,444,204,245,50.0,74.0,42.0,63.0,56.0,405.0,178.0,170.0
39,80,67,136,329,460,202,241,45.0,70.0,42.0,54.0,53.0,279.0,139.0,157.0
38,73,63,130,297,404,190,240,43.0,72.0,43.0,55.0,49.0,248.0,106.0,121.0
34,64,56,117,250,293,96,207,40.0,60.0,43.0,46.0,46.0,162.0,81.0,61.0
31,56,53,105,229,278,83,149,37.0,48.0,38.0,53.0,55.0,122.0,71.0,52.0
28,40,41,77,162,202,55,99,37.0,42.0,40.0,71.0,68.0,68.0,62.0,42.0
28,40,32,57,74,104,43,67,36.0,40.0,59.0,96.0,75.0,62.0,42.0,42.0
28,45,39,50,56,69,34,52,33.0,38.0,72.0,103.0,78.0,61.0,38.0,31.0
31,54,45,56,58,62,29,46,34.0,40.0,76.0,109.0,86.0,62.0,32.0,32.0
32,62,54,56,50,45,25,36,33.0,41.0,88.0,104.0,94.0,83.0,36.0,35.0
29,62,62,57,52,44,25,30,30.0,41.0,112.0,93.0,90.0,89.0,36.0,35.0
29,63,74,51,51,41,23,27,33.0,48.0,138.0,82.0,116.0,94.0,33.0,34.0
29,61,75,57,50,50,25,25,36.0,55.0,162.0,97.0,142.0,125.0,37.0,35.0
26,75,83,67,50,49,26,25,38.0,58.0,185.0,99.0,164.0,180.0,47.0,37.0
24,94,95,81,47,48,25,24,38.0,67.0,239.0,105.0,178.0,189.0,51.0,32.0
28,100,99,81,54,51,26,27,46.0,71.0,301.0,113.0,175.0,190.0,51.0,31.0
32,113,116,84,61,51,27,29,49.0,80.0,315.0,114.0,165.0,221.0,60.0,39.0
35,131,126,82,62,43,26,33,57.0,98.0,334.0,124.0,173.0,218.0,58.0,41.0
37,133,145,76,63,40,26,36,73.0,122.0,361.0,133.0,163.0,191.0,55.0,44.0
43,139,175,75,85,44,29,41,92.0,140.0,422.0,148.0,153.0,194.0,52.0,47.0
47,158,197,82,83,42,31,43,103.0,172.0,472.0,164.0,168.0,208.0,59.0,50.0
51,164,208,88,83,47,36,47,113.0,191.0,503.0,172.0,171.0,202.0,57.0,54.0
56,167,240,98,83,48,36,51,117.0,216.0,535.0,168.0,148.0,194.0,60.0,61.0
58,168,266,100,91,52,39,53,110.0,207.0,569.0,160.0,133.0,180.0,87.0,72.0
60,262,248,98,75,51,41,55,109.0,205.0,537.0,169.0,132.0,163.0,92.0,77.0
58,258,232,100,79,57,46,54,165.0,295.0,658.0,215.0,142.0,179.0,103.0,96.0
58,300,230,98,101,64,49,61,163.0,296.0,691.0,210.0,139.0,167.0,102.0,95.0
64,311,248,105,140,74,58,76,165.0,289.0,836.0,218.0,144.0,216.0,105.0,91.0
65,331,264,103,148,74,58,78,178.0,345.0,904.0,237.0,153.0,216.0,90.0,88.0
65,276,278,96,150,76,58,76,175.0,356.0,926.0,239.0,144.0,214.0,85.0,92.0
70,318,312,107,183,88,62,84,136.0,302.0,866.0,234.0,141.0,199.0,76.0,76.0
78,310,336,110,176,82,58,81,161.0,347.0,897.0,275.0,170.0,205.0,89.0,79.0
79,303,316,107,150,76,51,65,163.0,354.0,812.0,269.0,165.0,162.0,97.0,78.0
90,307,294,121,155,87,62,74,161.0,320.0,785.0,273.0,164.0,166.0,92.0,70.0
88,306,317,124,154,86,63,74,168.0,322.0,822.0,281.0,167.0,174.0,104.0,68.0
87,277,335,116,120,73,64,71,155.0,301.0,791.0,250.0,152.0,171.0,100.0,63.0
90,259,329,109,117,74,68,75,123.0,232.0,703.0,208.0,112.0,150.0,89.0,58.0
83,255,315,100,114,71,68,77,112.0,202.0,611.0,203.0,105.0,145.0,77.0,55.0
71,222,302,85,89,56,56,63,89.0,162.0,489.0,173.0,94.0,172.0,81.0,67.0
72,202,265,81,85,52,53,63,64.0,115.0,345.0,128.0,86.0,181.0,67.0,64.0
69,169,194,71,69,54,42,56,52.0,81.0,251.0,105.0,74.0,164.0,78.0,69.0
50,125,139,67,57,55,40,40,44.0,69.0,233.0,84.0,74.0,157.0,78.0,73.0
47,103,129,61,59,76,38,33,42.0,57.0,222.0,62.0,71.0,161.0,79.0,75.0
43,85,98,48,48,86,37,33,43.0,59.0,205.0,55.0,72.0,141.0,82.0,66.0
38,66,75,46,57,92,37,27,40.0,53.0,166.0,48.0,68.0,145.0,89.0,60.0
35,65,66,46,67,170,40,32,39.0,46.0,119.0,46.0,67.0,158.0,94.0,54.0
36,61,53,45,73,194,46,51,37.0,47.0,91.0,49.0,59.0,209.0,124.0,42.0
35,52,45,46,80,203,47,59,35.0,48.0,72.0,48.0,53.0,212.0,123.0,43.0
34,51,43,51,98,220,52,62,35.0,47.0,64.0,49.0,51.0,215.0,140.0,58.0
33,53,44,52,99,243,58,77,40.0,46.0,55.0,50.0,47.0,197.0,137.0,118.0
31,47,39,48,94,215,67,114,44.0,48.0,51.0,48.0,48.0,198.0,137.0,130.0
29,43,46,60,93,204,74,148,43.0,54.0,47.0,42.0,46.0,167.0,126.0,167.0
28,48,43,62,89,194,91,167,47.0,57.0,45.0,40.0,49.0,161.0,146.0,191.0
31,49,46,61,87,204,111,183,51.0,58.0,48.0,38.0,43.0,157.0,131.0,198.0
33,51,47,63,82,195,122,205,51.0,63.0,47.0,39.0,44.0,172.0,134.0,194.0
33,51,46,72,105,210,127,213,53.0,74.0,45.0,44.0,43.0,176.0,139.0,209.0
41,55,44,73,110,213,182,244,64.0,71.0,50.0,50.0,41.0,155.0,243.0,246.0
44,59,51,82,116,235,191,312,76.0,71.0,52.0,56.0,37.0,164.0,405.0,286.0
49,69,50,88,114,215,275,362,74.0,76.0,52.0,59.0,35.0,207.0,444.0,298.0
50,70,50,91,119,215,278,376,76.0,75.0,54.0,56.0,35.0,203.0,446.0,309.0
54,76,55,93,102,200,299,386,78.0,71.0,54.0,53.0,39.0,202.0,454.0,308.0
52,76,54,93,109,219,275,375,72.0,67.0,49.0,50.0,40.0,216.0,426.0,276.0
52,74,51,84,113,211,269,355,64.0,66.0,47.0,47.0,41.0,214.0,282.0,243.0
46,69,51,81,109,231,183,305,69.0,63.0,46.0,47.0,48.0,213.0,230.0,232.0
49,74,54,83,121,244,178,293,65.0,62.0,47.0,47.0,47.0,217.0,222.0,204.0
48,72,52,77,127,258,166,343,61.0,58.0,45.0,46.0,45.0,211.0,197.0,194.0
47,67,53,74,134,262,157,345,57.0,57.0,46.0,43.0,45.0,198.0,146.0,174.0
44,67,50,78,127,251,157,308,48.0,53.0,45.0,40.0,42.0,183.0,115.0,136.0
45,63,47,73,123,228,143,307,40.0,45.0,49.0,36.0,36.0,118.0,96.0,140.0
39,53,43,63,105,199,135,286,43.0,44.0,47.0,41.0,44.0,98.0,98.0,127.0
37,47,41,60,95,157,88,182,37.0,39.0,48.0,54.0,74.0,83.0,92.0,108.0
33,51,40,62,67,100,76,128,40.0,37.0,65.0,80.0,83.0,69.0,80.0,102.0
33,50,41,60,52,81,54,104,40.0,40.0,78.0,84.0,96.0,74.0,74.0,95.0
34,49,53,69,57,69,48,67,42.0,45.0,84.0,102.0,108.0,102.0,49.0,53.0
35,52,62,82,71,63,45,59,44.0,61.0,92.0,126.0,123.0,208.0,62.0,49.0
32,58,88,86,73,66,37,35,54.0,70.0,104.0,149.0,138.0,294.0,80.0,51.0
36,55,91,88,103,137,47,39,57.0,76.0,105.0,157.0,155.0,327.0,84.0,50.0
39,64,105,124,109,146,47,39,64.0,81.0,131.0,182.0,168.0,329.0,87.0,54.0
36,64,116,132,114,149,49,37,63.0,90.0,196.0,272.0,204.0,447.0,105.0,59.0
42,89,121,159,116,154,51,42,70.0,96.0,233.0,289.0,233.0,485.0,121.0,65.0
45,92,129,168,128,165,61,45,67.0,103.0,263.0,291.0,224.0,455.0,122.0,66.0
44,100,137,172,105,113,55,43,63.0,107.0,287.0,296.0,220.0,452.0,123.0,65.0
47,113,149,153,102,99,55,43,59.0,107.0,313.0,286.0,208.0,456.0,125.0,61.0
48,119,157,151,97,95,53,44,63.0,107.0,293.0,258.0,202.0,363.0,111.0,61.0
43,126,173,124,93,82,50,40,69.0,135.0,352.0,246.0,165.0,291.0,86.0,53.0
46,125,203,122,96,62,45,48,82.0,146.0,385.0,257.0,179.0,280.0,75.0,55.0
52,149,224,127,99,55,42,50,93.0,156.0,418.0,257.0,173.0,258.0,71.0,58.0
48,163,223,137,103,57,42,52,95.0,161.0,414.0,279.0,186.0,269.0,69.0,62.0
48,215,274,142,114,56,42,56,100.0,160.0,425.0,259.0,160.0,231.0,73.0,57.0
52,223,279,144,114,61,46,60,99.0,158.0,428.0,258.0,155.0,242.0,94.0,59.0
54,237,271,141,110,58,40,56,89.0,157.0,450.0,250.0,129.0,316.0,106.0,54.0
50,242,297,137,115,59,39,54,88.0,150.0,470.0,265.0,134.0,335.0,113.0,54.0
54,267,337,122,122,59,39,57,94.0,168.0,541.0,250.0,114.0,323.0,111.0,50.0
57,239,318,116,111,58,39,55,107.0,199.0,616.0,245.0,125.0,355.0,119.0,59.0
64,268,327,106,113,55,37,55,117.0,197.0,703.0,239.0,130.0,335.0,105.0,64.0
74,310,331,116,112,56,42,63,118.0,190.0,704.0,220.0,146.0,344.0,123.0,78.0
74,311,300,112,106,63,45,62,125.0,201.0,768.0,236.0,162.0,324.0,127.0,85.0
74,296,293,124,141,201,58,66,120.0,199.0,767.0,244.0,165.0,326.0,128.0,93.0
78,299,282,136,164,233,62,74,105.0,173.0,729.0,234.0,150.0,298.0,118.0,86.0
83,271,277,138,162,234,62,78,85.0,157.0,654.0,236.0,144.0,291.0,119.0,92.0
77,228,307,133,156,237,58,73,88.0,177.0,699.0,249.0,135.0,195.0,86.0,83.0
78,209,307,130,158,237,56,77,69.0,162.0,644.0,213.0,108.0,193.0,95.0,81.0
80,208,272,119,118,144,50,68,93.0,174.0,653.0,214.0,125.0,239.0,110.0,77.0
81,218,301,105,84,88,49,61,102.0,192.0,704.0,204.0,125.0,257.0,112.0,81.0
69,232,290,103,85,92,57,59,108.0,189.0,677.0,199.0,129.0,266.0,108.0,81.0
66,219,262,93,85,83,58,57,105.0,164.0,607.0,190.0,127.0,267.0,116.0,85.0
67,222,267,90,80,82,59,55,103.0,167.0,586.0,177.0,124.0,286.0,100.0,82.0
62,202,261,82,78,72,53,56,79.0,131.0,516.0,144.0,103.0,292.0,92.0,76.0
53,175,205,70,74,81,51,51,60.0,89.0,396.0,121.0,94.0,292.0,113.0,70.0
50,131,196,66,71,101,41,44,48.0,81.0,360.0,108.0,85.0,288.0,124.0,56.0
45,116,154,61,73,140,41,39,40.0,76.0,315.0,87.0,79.0,281.0,116.0,46.0
39,103,119,56,88,185,39,31,36.0,57.0,217.0,76.0,65.0,258.0,113.0,39.0
36,87,113,56,87,195,38,28,35.0,50.0,156.0,73.0,58.0,218.0,113.0,42.0
32,68,101,53,89,199,35,25,33.0,44.0,116.0,65.0,59.0,205.0,87.0,40.0
29,64,80,45,93,203,32,23,31.0,38.0,100.0,51.0,59.0,234.0,97.0,37.0
27,61,69,48,99,199,32,24,32.0,52.0,94.0,52.0,56.0,246.0,113.0,43.0
29,54,60,55,97,181,34,51,37.0,60.0,78.0,49.0,60.0,259.0,118.0,47.0
31,52,51,57,109,193,42,53,43.0,64.0,66.0,46.0,63.0,277.0,122.0,47.0
35,50,43,58,120,218,50,55,42.0,65.0,65.0,47.0,66.0,273.0,125.0,47.0
35,49,42,60,129,232,55,55,48.0,66.0,58.0,53.0,63.0,255.0,121.0,45.0
35,51,43,61,121,225,55,60,58.0,59.0,53.0,49.0,65.0,259.0,109.0,44.0
40,52,42,63,123,256,68,43,61.0,56.0,50.0,46.0,61.0,268.0,109.0,43.0
42,53,41,61,115,250,72,41,59.0,53.0,47.0,45.0,59.0,281.0,113.0,41.0
40,54,42,62,104,236,68,56,77.0,56.0,49.0,47.0,56.0,273.0,111.0,43.0
42,59,47,63,90,266,67,73,77.0,57.0,55.0,39.0,54.0,255.0,99.0,46.0
41,56,46,62,92,278,70,70,72.0,58.0,53.0,41.0,49.0,242.0,99.0,45.0
39,57,45,55,80,247,55,69,70.0,58.0,56.0,42.0,53.0,238.0,101.0,42.0
38,54,47,55,80,254,54,70,69.0,67.0,58.0,43.0,51.0,202.0,86.0,43.0
41,54,49,59,100,283,58,60,54.0,66.0,59.0,45.0,53.0,211.0,90.0,46.0
38,53,49,66,107,260,59,40,53.0,68.0,52.0,48.0,54.0,224.0,92.0,50.0
40,63,55,75,122,256,62,78,50.0,67.0,52.0,50.0,52.0,249.0,101.0,51.0
36,64,57,76,143,309,77,82,48.0,67.0,49.0,52.0,49.0,251.0,98.0,52.0
33,66,57,76,144,319,72,86,50.0,62.0,49.0,52.0,46.0,243.0,96.0,52.0
31,65,55,74,136,292,71,85,45.0,60.0,44.0,47.0,40.0,243.0,92.0,50.0
30,60,51,69,141,282,69,89,40.0,55.0,45.0,44.0,34.0,235.0,90.0,46.0
34,50,44,55,138,290,74,78,38.0,51.0,41.0,38.0,34.0,193.0,71.0,42.0
33,48,42,52,115,234,60,102,39.0,50.0,43.0,34.0,33.0,160.0,61.0,42.0
34,45,45,49,109,202,58,99,35.0,45.0,44.0,40.0,39.0,139.0,56.0,39.0
36,47,47,48,104,193,55,101,35.0,44.0,44.0,44.0,60.0,110.0,52.0,36.0
36,47,47,45,85,172,53,98,38.0,49.0,47.0,48.0,69.0,77.0,40.0,35.0
31,47,45,51,61,127,36,83,39.0,48.0,55.0,56.0,71.0,71.0,40.0,33.0
31,46,45,51,62,97,31,45,35.0,45.0,60.0,59.0,79.0,81.0,42.0,30.0
32,56,41,57,64,97,30,41,35.0,45.0,72.0,66.0,84.0,102.0,42.0,34.0
29,56,36,57,53,78,29,37,40.0,52.0,80.0,72.0,89.0,127.0,42.0,34.0
29,58,42,68,51,66,26,31,42.0,55.0,103.0,105.0,94.0,170.0,54.0,31.0
29,60,53,68,52,60,29,29,65.0,87.0,177.0,128.0,131.0,246.0,70.0,39.0
31,77,64,87,45,46,27,26,85.0,104.0,212.0,138.0,143.0,300.0,81.0,47.0
31,100,78,98,54,37,31,29,87.0,105.0,263.0,138.0,145.0,293.0,79.0,46.0
32,112,113,99,55,47,35,29,88.0,103.0,289.0,141.0,136.0,283.0,80.0,46.0
32,118,135,98,55,46,35,30,91.0,116.0,320.0,127.0,129.0,293.0,75.0,47.0
34,123,137,98,52,46,35,33,76.0,109.0,294.0,114.0,97.0,256.0,62.0,42.0
37,126,153,98,57,45,34,34,56.0,108.0,341.0,109.0,73.0,190.0,50.0,38.0
41,116,159,102,55,42,29,36,59.0,119.0,356.0,113.0,76.0,224.0,55.0,39.0
43,140,146,101,59,31,25,37,68.0,134.0,406.0,121.0,110.0,270.0,67.0,44.0
47,154,151,108,62,38,25,37,69.0,155.0,449.0,140.0,116.0,244.0,66.0,43.0
49,181,178,113,63,41,23,39,109.0,209.0,528.0,182.0,134.0,240.0,76.0,49.0
54,202,181,105,67,46,26,43,114.0,215.0,585.0,201.0,150.0,246.0,86.0,59.0
58,223,203,106,83,58,36,48,124.0,237.0,598.0,217.0,163.0,246.0,92.0,66.0
65,247,224,119,100,61,38,56,160.0,280.0,712.0,304.0,191.0,206.0,95.0,82.0
84,295,256,155,124,70,48,70,175.0,280.0,730.0,316.0,190.0,204.0,102.0,89.0
89,311,280,156,138,77,57,85,179.0,266.0,718.0,323.0,188.0,187.0,98.0,91.0
91,337,299,174,160,82,59,86,221.0,292.0,715.0,317.0,185.0,178.0,93.0,95.0
92,340,304,176,164,78,60,87,235.0,294.0,824.0,372.0,210.0,174.0,90.0,94.0
90,328,326,181,160,78,61,87,222.0,261.0,771.0,361.0,185.0,191.0,85.0,83.0
82,323,365,167,146,73,61,86,216.0,255.0,749.0,380.0,193.0,191.0,76.0,76.0
78,314,418,187,141,65,54,76,207.0,257.0,775.0,372.0,190.0,230.0,76.0,76.0
73,290,448,175,116,60,55,76,165.0,230.0,804.0,418.0,197.0,263.0,79.0,63.0
82,295,451,179,102,59,54,74,155.0,224.0,747.0,378.0,174.0,262.0,80.0,69.0
89,295,476,176,106,62,56,78,144.0,244.0,740.0,331.0,158.0,255.0,77.0,67.0
100,277,446,167,116,62,53,68,139.0,248.0,777.0,301.0,158.0,277.0,87.0,67.0
99,273,390,140,108,64,52,63,137.0,239.0,821.0,314.0,154.0,268.0,90.0,64.0
105,279,376,143,106,63,50,62,129.0,229.0,745.0,246.0,141.0,250.0,90.0,64.0
101,258,366,126,99,59,47,61,102.0,205.0,678.0,225.0,112.0,231.0,84.0,52.0
93,237,301,116,90,57,42,51,90.0,158.0,605.0,219.0,107.0,214.0,80.0,49.0
73,196,275,98,65,47,36,47,77.0,133.0,519.0,199.0,91.0,201.0,69.0,48.0
75,164,251,94,62,42,36,51,47.0,83.0,329.0,129.0,74.0,174.0,59.0,41.0
66,107,182,73,58,35,31,43,41.0,73.0,306.0,121.0,74.0,181.0,51.0,38.0
55,97,154,66,53,35,28,36,38.0,68.0,242.0,99.0,83.0,222.0,80.0,35.0
53,98,142,56,41,37,24,32,34.0,64.0,213.0,71.0,85.0,236.0,84.0,33.0
47,95,121,59,57,103,26,35,35.0,55.0,183.0,61.0,80.0,216.0,87.0,36.0
42,92,98,55,70,151,29,29,31.0,43.0,141.0,59.0,81.0,238.0,107.0,37.0
40,82,83,55,75,164,30,29,29.0,40.0,67.0,52.0,67.0,229.0,109.0,39.0
39,68,73,56,82,250,30,27,31.0,40.0,60.0,49.0,51.0,195.0,96.0,37.0
36,53,57,51,88,269,34,28,33.0,44.0,56.0,45.0,49.0,223.0,107.0,37.0
40,52,49,51,99,292,34,27,37.0,51.0,51.0,44.0,54.0,227.0,110.0,36.0
42,53,44,55,112,298,35,27,40.0,57.0,50.0,45.0,61.0,247.0,113.0,42.0
40,52,40,53,114,300,44,33,53.0,59.0,50.0,38.0,56.0,257.0,120.0,44.0
39,51,39,53,123,250,48,67,89.0,69.0,52.0,36.0,59.0,266.0,115.0,51.0
40,51,39,58,133,248,45,69,104.0,69.0,50.0,37.0,55.0,236.0,103.0,52.0
37,48,37,58,127,210,49,74,105.0,67.0,46.0,39.0,51.0,238.0,98.0,50.0
31,42,37,53,110,180,55,79,106.0,63.0,43.0,39.0,41.0,189.0,75.0,48.0
31,44,38,55,107,180,51,83,102.0,62.0,42.0,37.0,43.0,178.0,78.0,45.0
32,45,36,56,99,164,55,64,73.0,52.0,40.0,39.0,41.0,181.0,86.0,40.0
33,47,38,51,84,183,63,61,57.0,48.0,39.0,37.0,42.0,184.0,91.0,39.0
31,49,40,52,95,210,67,56,54.0,44.0,36.0,35.0,43.0,201.0,98.0,40.0
31,51,42,57,100,220,63,49,51.0,44.0,43.0,39.0,43.0,215.0,97.0,37.0
37,53,42,59,111,236,61,78,48.0,49.0,45.0,46.0,42.0,261.0,98.0,35.0
38,47,43,59,111,266,62,81,47.0,57.0,49.0,44.0,43.0,241.0,89.0,39.0
36,53,43,68,128,262,55,83,40.0,57.0,49.0,45.0,41.0,243.0,87.0,37.0
39,55,43,70,138,254,49,83,37.0,57.0,51.0,45.0,41.0,236.0,90.0,38.0
39,55,45,65,135,240,50,84,32.0,56.0,46.0,42.0,40.0,229.0,91.0,35.0
37,55,46,64,129,218,52,53,33.0,51.0,42.0,34.0,38.0,154.0,75.0,35.0
33,60,45,60,126,175,45,44,32.0,40.0,39.0,33.0,34.0,151.0,75.0,29.0
35,56,45,50,107,137,42,41,30.0,39.0,38.0,35.0,36.0,131.0,68.0,29.0
31,51,42,46,74,88,39,39,32.0,38.0,41.0,39.0,34.0,96.0,48.0,27.0
32,49,37,44,68,81,33,35,33.0,38.0,40.0,39.0,43.0,61.0,39.0,27.0
28,47,33,41,58,68,28,29,40.0,59.0,56.0,43.0,52.0,50.0,35.0,30.0
31,66,37,42,55,63,25,27,53.0,97.0,61.0,46.0,61.0,50.0,38.0,34.0
36,74,35,47,52,50,25,26,55.0,103.0,61.0,43.0,64.0,48.0,36.0,34.0
43,76,36,46,49,49,26,28,55.0,106.0,62.0,43.0,68.0,50.0,36.0,35.0
43,76,40,51,53,44,25,28,56.0,108.0,81.0,43.0,69.0,47.0,37.0,39.0
44,79,45,53,57,41,25,29,58.0,117.0,123.0,70.0,68.0,48.0,38.0,40.0
42,68,49,62,56,35,25,30,48.0,94.0,167.0,71.0,69.0,49.0,35.0,37.0
40,65,69,62,57,37,22,29,49.0,102.0,203.0,90.0,87.0,62.0,43.0,44.0
34,91,82,70,60,33,24,27,52.0,115.0,285.0,98.0,97.0,65.0,43.0,45.0
33,108,120,73,58,38,24,26,57.0,123.0,343.0,104.0,96.0,66.0,42.0,42.0
36,134,142,80,61,39,26,25,54.0,126.0,421.0,102.0,94.0,74.0,43.0,41.0
43,142,144,77,61,40,26,25,62.0,143.0,467.0,124.0,93.0,79.0,45.0,48.0
39,172,156,85,64,37,26,24,65.0,158.0,495.0,132.0,85.0,96.0,44.0,44.0
39,182,166,86,72,38,26,30,74.0,177.0,501.0,140.0,82.0,119.0,59.0,48.0
53,212,149,87,74,35,28,37,75.0,179.0,502.0,151.0,105.0,129.0,63.0,58.0
54,202,159,89,74,38,28,37,88.0,194.0,533.0,191.0,128.0,142.0,66.0,59.0
56,211,188,100,79,43,33,44,93.0,209.0,500.0,182.0,132.0,146.0,69.0,57.0
61,197,211,98,77,50,35,50,108.0,235.0,591.0,184.0,134.0,137.0,78.0,66.0
62,189,216,97,70,49,37,49,119.0,259.0,624.0,180.0,140.0,125.0,75.0,67.0
51,160,233,95,82,54,40,49,122.0,293.0,650.0,175.0,124.0,127.0,70.0,59.0
61,219,242,88,87,52,42,53,118.0,296.0,601.0,151.0,113.0,119.0,68.0,61.0
65,225,246,89,85,48,37,47,117.0,284.0,637.0,191.0,112.0,121.0,69.0,60.0
67,221,231,87,86,43,39,42,111.0,266.0,578.0,200.0,109.0,117.0,56.0,52.0
69,236,256,86,94,47,39,46,138.0,279.0,529.0,203.0,101.0,163.0,52.0,52.0
77,239,250,88,85,43,36,46,174.0,361.0,593.0,226.0,121.0,169.0,56.0,72.0
94,238,263,126,93,42,36,50,191.0,379.0,654.0,234.0,127.0,169.0,64.0,74.0
121,267,286,131,108,51,46,68,207.0,395.0,685.0,231.0,130.0,198.0,66.0,75.0
133,277,306,138,111,51,45,68,209.0,441.0,765.0,226.0,130.0,238.0,69.0,77.0
151,281,286,138,112,49,44,67,193.0,440.0,801.0,251.0,142.0,213.0,70.0,83.0
150,304,300,143,121,54,45,66,166.0,357.0,747.0,248.0,132.0,210.0,72.0,70.0
144,336,275,126,123,57,49,69,159.0,345.0,750.0,240.0,140.0,251.0,84.0,72.0
142,330,262,123,112,58,49,60,149.0,357.0,736.0,261.0,142.0,229.0,83.0,78.0
132,371,258,123,112,63,52,66,166.0,307.0,665.0,282.0,164.0,202.0,92.0,83.0
119,390,298,137,108,69,57,73,157.0,271.0,650.0,266.0,169.0,238.0,100.0,81.0
129,385,303,136,108,72,61,82,154.0,260.0,626.0,257.0,168.0,235.0,101.0,81.0
123,337,333,123,93,72,59,79,134.0,233.0,552.0,241.0,148.0,191.0,85.0,76.0
96,323,317,114,87,65,53,74,115.0,177.0,486.0,188.0,140.0,193.0,82.0,67.0
93,281,307,101,82,59,49,71,71.0,132.0,405.0,134.0,114.0,214.0,87.0,76.0
83,237,259,78,72,61,43,60,58.0,104.0,311.0,104.0,91.0,207.0,128.0,77.0
60,209,223,64,71,134,51,53,43.0,94.0,258.0,77.0,85.0,210.0,126.0,73.0
52,184,163,59,82,153,56,70,42.0,74.0,179.0,67.0,82.0,219.0,131.0,72.0
50,153,137,44,94,178,60,86,48.0,65.0,134.0,55.0,80.0,212.0,136.0,79.0
40,111,90,45,92,184,64,87,58.0,67.0,68.0,44.0,71.0,193.0,130.0,62.0
39,85,72,47,94,183,67,90,65.0,60.0,59.0,45.0,57.0,185.0,96.0,51.0
64,68,69,53,92,181,58,91,66.0,59.0,52.0,43.0,53.0,190.0,105.0,53.0
65,63,60,54,86,189,53,78,69.0,58.0,55.0,46.0,55.0,184.0,101.0,61.0
65,66,54,54,82,174,57,90,64.0,62.0,63.0,48.0,59.0,238.0,114.0,57.0
70,64,49,57,83,176,55,96,56.0,59.0,63.0,49.0,59.0,232.0,112.0,62.0
69,65,45,59,102,227,70,100,59.0,68.0,68.0,51.0,62.0,234.0,123.0,98.0
46,65,48,55,106,210,83,97,64.0,76.0,69.0,48.0,61.0,269.0,143.0,121.0
44,68,54,61,110,227,88,103,79.0,76.0,66.0,46.0,60.0,265.0,159.0,130.0
42,74,58,65,116,233,89,145,129.0,71.0,58.0,40.0,58.0,234.0,149.0,136.0
38,75,58,70,123,245,99,168,139.0,72.0,57.0,47.0,55.0,274.0,152.0,170.0
40,73,59,72,120,216,109,181,155.0,67.0,49.0,45.0,54.0,277.0,153.0,163.0
42,72,56,77,124,253,110,218,155.0,72.0,56.0,51.0,52.0,294.0,146.0,155.0
44,77,56,87,148,269,124,236,151.0,77.0,54.0,51.0,54.0,316.0,138.0,155.0
45,68,56,96,180,286,131,230,116.0,83.0,56.0,56.0,53.0,386.0,192.0,157.0
45,71,57,91,199,339,132,212,110.0,82.0,56.0,51.0,56.0,364.0,218.0,129.0
44,71,56,95,208,342,122,208,99.0,80.0,56.0,48.0,52.0,354.0,209.0,120.0
47,75,61,104,241,340,124,237,97.0,73.0,53.0,43.0,51.0,321.0,203.0,124.0
50,67,57,96,228,318,115,228,93.0,74.0,55.0,44.0,54.0,320.0,206.0,120.0
51,66,54,89,212,326,109,205,87.0,68.0,54.0,41.0,54.0,220.0,155.0,112.0
51,59,55,93,196,271,99,209,79.0,66.0,54.0,43.0,48.0,206.0,106.0,98.0
49,58,53,86,181,257,90,201,52.0,66.0,58.0,44.0,55.0,189.0,95.0,92.0
46,52,45,68,118,210,72,114,48.0,60.0,53.0,52.0,58.0,161.0,82.0,71.0
39,50,43,61,109,187,58,89,45.0,54.0,58.0,90.0,65.0,104.0,45.0,55.0
34,49,47,68,77,121,45,76,42.0,50.0,62.0,106.0,69.0,85.0,43.0,45.0
35,49,46,72,58,81,38,59,40.0,47.0,103.0,107.0,72.0,71.0,46.0,42.0
35,50,49,71,50,73,37,50,39.0,66.0,178.0,117.0,77.0,54.0,39.0,43.0
33,53,58,73,50,66,35,37,42.0,76.0,217.0,136.0,91.0,51.0,35.0,34.0
34,72,72,77,52,62,26,35,47.0,78.0,225.0,125.0,114.0,56.0,40.0,36.0
36,75,70,78,53,59,24,31,48.0,81.0,235.0,139.0,115.0,61.0,42.0,37.0
34,87,73,71,48,57,24,30,48.0,85.0,235.0,152.0,126.0,70.0,41.0,36.0
35,86,89,80,46,56,23,28,44.0,72.0,198.0,165.0,143.0,96.0,46.0,37.0
34,92,89,78,43,62,24,29,47.0,85.0,236.0,150.0,145.0,109.0,51.0,40.0
36,85,96,89,42,60,27,24,46.0,82.0,243.0,148.0,125.0,131.0,55.0,39.0
39,92,121,82,42,59,26,25,54.0,88.0,262.0,126.0,123.0,137.0,54.0,37.0
42,85,120,80,49,60,29,29,54.0,87.0,267.0,109.0,114.0,142.0,53.0,34.0
43,92,110,81,52,51,29,27,58.0,89.0,283.0,98.0,100.0,128.0,51.0,36.0
46,118,118,85,51,41,29,31,59.0,80.0,296.0,106.0,90.0,140.0,55.0,38.0
46,129,133,72,52,42,27,32,70.0,138.0,404.0,118.0,91.0,126.0,50.0,45.0
47,138,163,80,55,44,29,41,80.0,158.0,464.0,126.0,94.0,131.0,57.0,48.0
50,164,206,96,61,42,30,48,102.0,216.0,552.0,152.0,100.0,131.0,62.0,56.0
54,205,228,106,63,40,30,49,111.0,229.0,696.0,211.0,92.0,136.0,63.0,60.0
76,226,302,125,96,48,35,57,128.0,243.0,793.0,245.0,96.0,132.0,66.0,67.0
79,235,319,137,109,54,41,64,149.0,270.0,926.0,287.0,117.0,146.0,81.0,78.0
96,256,352,134,117,59,51,77,175.0,292.0,1020.0,327.0,149.0,218.0,86.0,85.0
103,277,352,126,122,66,59,89,180.0,315.0,1034.0,326.0,146.0,227.0,87.0,86.0
126,310,389,138,131,71,66,100,182.0,336.0,961.0,369.0,164.0,230.0,90.0,91.0
122,333,384,130,114,65,63,99,201.0,369.0,1035.0,493.0,214.0,231.0,94.0,95.0
139,340,475,164,113,64,64,109,202.0,355.0,927.0,499.0,212.0,241.0,97.0,93.0
143,345,627,218,174,86,74,119,206.0,388.0,861.0,497.0,201.0,183.0,96.0,94.0
152,353,671,228,178,83,68,110,236.0,410.0,900.0,532.0,226.0,177.0,97.0,92.0
146,397,678,222,172,80,64,113,252.0,414.0,949.0,485.0,226.0,188.0,104.0,97.0
145,375,726,239,188,91,70,119,231.0,389.0,863.0,359.0,184.0,205.0,103.0,93.0
144,400,687,234,198,96,77,122,224.0,410.0,842.0,323.0,180.0,197.0,93.0,88.0
134,389,565,201,145,74,61,105,206.0,377.0,819.0,335.0,196.0,236.0,98.0,88.0
128,410,556,203,145,78,63,105,173.0,307.0,750.0,311.0,187.0,263.0,102.0,87.0
117,330,567,209,149,85,67,94,144.0,279.0,699.0,308.0,172.0,254.0,92.0,76.0
115,315,495,186,138,76,64,85,145.0,262.0,572.0,278.0,162.0,237.0,85.0,72.0
96,273,473,157,112,65,54,63,132.0,193.0,522.0,264.0,152.0,222.0,78.0,72.0
92,262,423,133,104,63,52,58,114.0,138.0,439.0,193.0,113.0,165.0,75.0,67.0
75,165,343,111,88,79,48,52,83.0,117.0,380.0,105.0,76.0,102.0,78.0,69.0
63,139,248,78,76,83,43,44,70.0,89.0,329.0,77.0,66.0,102.0,80.0,64.0
50,125,194,72,67,98,44,37,53.0,76.0,314.0,70.0,69.0,109.0,88.0,62.0
47,107,138,67,79,111,43,36,42.0,66.0,311.0,70.0,73.0,129.0,99.0,52.0
39,85,123,70,87,174,47,39,41.0,68.0,299.0,62.0,71.0,153.0,95.0,48.0
40,86,112,70,95,251,49,44,41.0,59.0,232.0,53.0,66.0,152.0,91.0,43.0
38,84,104,67,105,269,45,46,41.0,55.0,168.0,48.0,69.0,146.0,90.0,50.0
38,79,84,63,100,275,46,44,47.0,58.0,153.0,48.0,65.0,130.0,82.0,49.0
34,57,78,57,91,279,48,42,53.0,60.0,119.0,45.0,63.0,175.0,103.0,58.0
34,59,63,57,87,254,46,39,62.0,78.0,97.0,45.0,62.0,219.0,126.0,65.0
34,54,58,47,84,201,54,46,169.0,81.0,78.0,44.0,66.0,262.0,135.0,94.0
36,51,53,53,94,264,61,66,174.0,82.0,62.0,43.0,64.0,273.0,135.0,94.0
42,56,53,60,118,290,59,88,179.0,82.0,59.0,40.0,60.0,284.0,139.0,96.0
44,53,49,61,122,292,59,91,183.0,81.0,57.0,42.0,66.0,311.0,130.0,95.0
46,49,50,68,138,298,62,112,183.0,61.0,44.0,36.0,65.0,284.0,118.0,104.0
43,49,50,73,150,300,68,125,98.0,56.0,41.0,37.0,56.0,259.0,106.0,122.0
41,51,53,74,158,279,79,127,92.0,66.0,46.0,37.0,62.0,273.0,119.0,134.0
41,49,51,70,146,274,99,176,88.0,72.0,46.0,37.0,70.0,310.0,141.0,149.0
45,50,53,78,157,291,109,204,76.0,72.0,47.0,39.0,64.0,315.0,163.0,157.0
45,55,58,86,162,296,117,268,76.0,72.0,49.0,43.0,67.0,337.0,158.0,165.0
46,57,57,86,162,333,139,267,70.0,74.0,52.0,44.0,70.0,335.0,163.0,138.0
46,57,61,87,167,327,146,272,70.0,66.0,47.0,46.0,64.0,329.0,160.0,132.0
43,61,64,96,191,306,136,241,56.0,69.0,48.0,58.0,55.0,365.0,152.0,115.0
35,62,66,97,194,286,133,222,58.0,68.0,51.0,57.0,57.0,330.0,128.0,107.0
31,70,64,110,269,380,132,135,50.0,70.0,53.0,55.0,54.0,327.0,126.0,80.0
33,76,69,121,299,380,109,200,48.0,74.0,51.0,55.0,53.0,336.0,126.0,74.0
35,82,68,125,313,377,90,192,47.0,73.0,52.0,56.0,51.0,323.0,122.0,61.0
37,83,64,123,317,400,90,193,48.0,63.0,53.0,42.0,52.0,230.0,102.0,54.0
37,85,61,117,312,398,84,189,45.0,60.0,51.0,43.0,49.0,206.0,84.0,43.0
38,75,52,93,240,303,71,181,44.0,55.0,60.0,116.0,88.0,150.0,76.0,41.0
38,67,47,78,194,246,59,88,44.0,48.0,62.0,117.0,106.0,105.0,61.0,40.0
38,59,42,77,148,200,52,77,40.0,45.0,63.0,117.0,109.0,123.0,50.0,38.0
35,55,47,72,95,143,44,53,38.0,47.0,77.0,118.0,111.0,137.0,50.0,40.0
38,60,49,77,89,145,40,48,38.0,48.0,76.0,124.0,118.0,136.0,46.0,39.0
34,72,56,79,83,139,37,40,39.0,52.0,91.0,72.0,118.0,143.0,44.0,42.0
34,77,55,83,75,129,35,33,38.0,54.0,96.0,83.0,126.0,147.0,46.0,41.0
32,82,73,87,75,126,34,31,41.0,64.0,113.0,85.0,125.0,128.0,45.0,41.0
35,81,86,87,70,118,32,32,40.0,64.0,174.0,85.0,124.0,129.0,42.0,41.0
36,86,94,84,57,102,31,28,48.0,73.0,193.0,83.0,139.0,134.0,47.0,44.0
37,82,100,82,57,86,30,30,51.0,70.0,213.0,119.0,128.0,126.0,50.0,38.0
41,85,109,81,51,75,29,33,50.0,72.0,249.0,120.0,131.0,138.0,48.0,40.0
41,83,115,82,45,67,30,37,51.0,76.0,289.0,123.0,133.0,139.0,48.0,42.0
40,91,131,84,51,64,30,40,56.0,85.0,343.0,144.0,148.0,126.0,58.0,40.0
38,88,133,95,60,62,26,41,51.0,84.0,388.0,142.0,130.0,124.0,53.0,37.0
39,100,156,97,62,49,28,42,64.0,135.0,424.0,124.0,138.0,140.0,58.0,45.0
35,104,165,89,61,44,27,41,80.0,187.0,552.0,130.0,129.0,123.0,58.0,42.0
40,157,171,80,69,40,27,43,86.0,208.0,574.0,149.0,133.0,136.0,57.0,42.0
43,204,170,89,71,37,28,43,90.0,225.0,631.0,152.0,124.0,157.0,47.0,42.0
52,230,196,83,73,39,29,45,107.0,254.0,670.0,178.0,128.0,161.0,59.0,53.0
58,253,223,91,74,38,33,43,141.0,282.0,794.0,293.0,182.0,181.0,70.0,57.0
75,277,270,105,88,44,42,61,146.0,268.0,764.0,314.0,187.0,190.0,70.0,59.0
76,320,309,106,93,46,42,62,157.0,292.0,903.0,314.0,196.0,204.0,73.0,64.0
82,347,337,104,102,52,46,68,173.0,321.0,934.0,367.0,220.0,272.0,93.0,78.0
80,348,356,102,108,56,49,69,204.0,375.0,1022.0,370.0,235.0,289.0,105.0,100.0
83,385,372,100,114,62,52,79,211.0,381.0,984.0,379.0,221.0,285.0,102.0,104.0
107,425,372,109,127,70,56,75,207.0,377.0,1046.0,369.0,211.0,280.0,105.0,104.0
118,396,398,125,127,74,64,82,209.0,371.0,952.0,371.0,207.0,269.0,107.0,104.0
125,357,388,123,123,72,64,83,201.0,350.0,911.0,355.0,209.0,219.0,103.0,99.0
137,373,389,129,117,69,63,84,162.0,278.0,852.0,346.0,200.0,203.0,93.0,74.0
136,343,396,138,112,69,62,76,125.0,248.0,810.0,246.0,186.0,253.0,92.0,67.0
118,312,392,124,94,62,58,75,131.0,259.0,711.0,241.0,218.0,284.0,102.0,72.0
110,316,363,107,97,61,51,69,125.0,241.0,743.0,240.0,223.0,283.0,103.0,71.0
98,318,361,102,96,62,54,64,114.0,219.0,691.0,175.0,196.0,255.0,93.0,66.0
85,308,339,99,103,66,57,66,111.0,210.0,582.0,165.0,188.0,246.0,89.0,63.0
83,279,299,85,100,60,52,65,103.0,176.0,551.0,158.0,164.0,177.0,86.0,57.0
69,229,262,79,90,55,48,56,84.0,141.0,492.0,143.0,118.0,133.0,72.0,47.0
64,192,214,77,79,47,43,49,62.0,113.0,357.0,128.0,99.0,147.0,83.0,42.0
58,167,184,72,73,78,34,43,59.0,105.0,334.0,120.0,100.0,181.0,87.0,40.0
47,107,179,64,71,103,31,35,54.0,90.0,318.0,116.0,96.0,208.0,89.0,41.0
40,93,148,54,79,123,34,32,44.0,73.0,246.0,101.0,91.0,218.0,96.0,38.0
37,90,141,52,92,165,34,30,45.0,71.0,233.0,94.0,87.0,273.0,113.0,39.0
30,80,127,56,100,243,38,30,36.0,53.0,169.0,71.0,80.0,286.0,111.0,37.0
33,78,120,57,118,280,42,33,34.0,48.0,133.0,62.0,79.0,266.0,108.0,37.0
33,61,74,52,123,281,43,36,35.0,46.0,93.0,52.0,77.0,266.0,117.0,39.0
34,55,70,54,122,277,44,38,85.0,53.0,69.0,42.0,72.0,262.0,113.0,39.0
36,55,49,59,122,287,47,48,91.0,49.0,62.0,38.0,71.0,211.0,99.0,39.0
38,51,47,55,119,240,49,56,91.0,47.0,52.0,37.0,68.0,229.0,101.0,40.0
33,51,44,56,99,190,45,54,97.0,54.0,47.0,41.0,58.0,318.0,121.0,45.0
31,48,43,59,111,208,45,51,100.0,58.0,46.0,39.0,52.0,318.0,109.0,45.0
29,54,41,64,140,255,52,53,66.0,54.0,42.0,37.0,49.0,312.0,106.0,52.0
29,51,40,65,141,233,57,44,83.0,58.0,46.0,40.0,51.0,327.0,111.0,65.0
28,52,43,63,140,229,56,46,141.0,72.0,43.0,42.0,54.0,320.0,126.0,91.0
29,55,45,75,177,275,72,110,139.0,69.0,43.0,39.0,49.0,246.0,108.0,98.0
33,57,48,77,172,290,85,119,150.0,69.0,42.0,42.0,54.0,298.0,126.0,154.0
34,58,49,85,175,295,95,165,149.0,69.0,46.0,44.0,55.0,319.0,132.0,153.0
35,58,52,91,183,301,102,191,139.0,69.0,45.0,45.0,56.0,341.0,150.0,160.0
34,60,52,92,188,306,109,194,89.0,57.0,50.0,46.0,49.0,323.0,147.0,163.0
38,55,51,91,179,336,113,232,92.0,61.0,54.0,48.0,49.0,342.0,165.0,176.0
37,53,50,92,186,325,123,259,74.0,58.0,55.0,48.0,43.0,291.0,157.0,132.0
39,48,47,85,197,305,115,251,74.0,56.0,51.0,47.0,45.0,295.0,157.0,132.0
40,48,44,81,189,297,111,241,77.0,55.0,49.0,46.0,42.0,301.0,166.0,140.0
41,51,45,80,193,298,109,245,68.0,53.0,47.0,49.0,46.0,299.0,155.0,125.0
39,61,47,80,199,287,112,211,62.0,49.0,42.0,46.0,45.0,280.0,135.0,102.0
37,68,51,85,198,299,91,183,57.0,53.0,44.0,47.0,54.0,285.0,136.0,107.0
40,70,53,82,185,312,98,167,55.0,54.0,45.0,47.0,51.0,260.0,130.0,105.0
40,72,52,82,182,326,94,159,42.0,50.0,44.0,45.0,47.0,187.0,84.0,74.0
39,69,48,79,172,316,88,148,38.0,47.0,42.0,37.0,46.0,186.0,78.0,66.0
39,60,44,70,137,251,65,110,37.0,42.0,43.0,38.0,51.0,156.0,73.0,57.0
39,53,37,59,119,214,62,89,32.0,33.0,41.0,42.0,46.0,108.0,52.0,34.0
34,52,34,62,78,155,42,68,34.0,32.0,40.0,50.0,69.0,94.0,47.0,31.0
34,60,35,55,66,101,30,53,38.0,41.0,57.0,73.0,90.0,84.0,43.0,31.0
34,67,38,59,58,86,27,44,38.0,45.0,63.0,78.0,96.0,65.0,38.0,31.0
36,96,44,68,59,78,22,36,149.0,122.0,81.0,78.0,99.0,59.0,39.0,37.0
34,110,48,69,51,51,23,33,233.0,230.0,115.0,77.0,100.0,81.0,44.0,47.0
60,114,56,76,56,58,25,46,260.0,249.0,235.0,82.0,90.0,83.0,45.0,53.0
69,128,59,88,65,73,30,56,263.0,255.0,331.0,79.0,79.0,91.0,49.0,53.0
78,129,70,100,68,86,29,60,272.0,264.0,371.0,92.0,80.0,91.0,50.0,54.0
81,152,100,104,67,89,31,61,233.0,240.0,386.0,106.0,84.0,107.0,51.0,50.0
82,147,109,114,67,88,30,61,155.0,146.0,390.0,112.0,93.0,163.0,59.0,43.0
69,153,109,110,65,90,30,51,160.0,131.0,351.0,107.0,106.0,293.0,82.0,44.0
60,147,109,100,58,84,26,40,166.0,134.0,293.0,119.0,128.0,316.0,90.0,45.0
58,157,112,99,68,101,29,43,156.0,126.0,303.0,126.0,165.0,328.0,95.0,48.0
56,165,109,101,81,110,28,45,161.0,127.0,352.0,164.0,177.0,336.0,100.0,50.0
62,182,137,102,88,117,31,48,164.0,130.0,480.0,172.0,177.0,355.0,109.0,57.0
65,191,250,110,90,117,38,54,117.0,135.0,518.0,185.0,185.0,298.0,108.0,54.0
69,201,258,120,105,116,46,63,102.0,141.0,573.0,224.0,191.0,345.0,117.0,59.0
70,203,279,115,105,100,50,60,115.0,171.0,606.0,225.0,161.0,348.0,118.0,67.0
71,192,289,122,104,88,51,59,143.0,205.0,662.0,257.0,173.0,348.0,117.0,70.0
67,228,291,132,111,84,51,61,174.0,237.0,617.0,260.0,174.0,310.0,109.0,76.0
71,232,250,129,111,76,50,65,199.0,250.0,664.0,268.0,168.0,306.0,104.0,85.0
88,299,278,133,109,73,47,71,219.0,267.0,726.0,256.0,162.0,266.0,93.0,85.0
100,331,293,145,117,72,55,83,251.0,280.0,740.0,319.0,189.0,261.0,100.0,91.0
106,345,292,136,114,75,57,84,274.0,302.0,839.0,365.0,215.0,268.0,115.0,109.0
147,374,378,140,122,74,70,119,292.0,313.0,920.0,382.0,221.0,308.0,114.0,112.0
155,433,424,148,145,81,77,126,320.0,326.0,1004.0,443.0,240.0,292.0,122.0,112.0
151,442,437,146,143,83,81,124,320.0,336.0,1053.0,441.0,232.0,277.0,118.0,117.0
153,445,451,168,134,77,82,133,318.0,335.0,1074.0,427.0,236.0,288.0,116.0,114.0
155,502,520,174,142,74,85,142,331.0,395.0,1047.0,394.0,217.0,278.0,111.0,113.0
125,477,498,173,129,75,78,117,307.0,379.0,999.0,376.0,208.0,232.0,107.0,104.0
121,474,481,171,110,70,75,114,269.0,357.0,939.0,327.0,191.0,220.0,98.0,100.0
124,430,465,170,103,66,68,109,260.0,372.0,828.0,329.0,205.0,192.0,97.0,94.0
116,422,463,150,100,64,57,90,233.0,353.0,768.0,299.0,182.0,192.0,93.0,87.0
111,405,385,151,89,66,54,80,162.0,242.0,650.0,252.0,159.0,235.0,86.0,79.0
104,386,348,135,83,61,48,75,143.0,247.0,679.0,269.0,172.0,247.0,101.0,81.0
93,319,298,127,69,66,40,57,122.0,241.0,568.0,225.0,155.0,258.0,125.0,90.0
80,318,320,121,70,101,44,65,109.0,169.0,523.0,195.0,133.0,281.0,134.0,102.0
70,288,276,101,73,115,67,86,95.0,161.0,501.0,174.0,119.0,274.0,146.0,113.0
60,160,259,80,77,146,84,89,78.0,148.0,452.0,149.0,114.0,269.0,151.0,104.0
53,151,228,70,85,159,90,94,70.0,100.0,267.0,97.0,106.0,285.0,162.0,105.0
49,136,209,63,89,162,93,114,63.0,89.0,238.0,79.0,109.0,323.0,152.0,93.0
38,95,128,55,94,177,93,123,52.0,72.0,197.0,71.0,103.0,305.0,147.0,84.0
38,75,105,51,98,197,77,108,47.0,68.0,178.0,57.0,116.0,307.0,142.0,82.0
35,65,98,56,95,214,58,115,101.0,73.0,173.0,57.0,118.0,289.0,140.0,107.0
35,55,78,58,111,262,63,122,111.0,73.0,149.0,54.0,121.0,288.0,132.0,132.0
40,54,68,69,129,296,84,149,120.0,75.0,135.0,56.0,119.0,232.0,119.0,161.0
37,56,57,68,138,299,93,152,126.0,74.0,122.0,64.0,122.0,236.0,254.0,186.0
38,64,58,70,141,303,110,184,145.0,91.0,64.0,89.0,113.0,272.0,532.0,246.0
39,70,53,73,150,373,156,203,142.0,100.0,61.0,92.0,108.0,266.0,758.0,281.0
45,85,61,97,169,535,237,269,148.0,107.0,50.0,93.0,94.0,310.0,839.0,295.0
48,95,81,127,212,603,275,304,149.0,112.0,50.0,93.0,90.0,308.0,893.0,316.0
49,92,83,133,237,622,316,328,164.0,118.0,50.0,95.0,91.0,309.0,956.0,338.0
47,92,83,140,253,648,337,346,151.0,105.0,53.0,76.0,89.0,330.0,859.0,311.0
52,96,92,153,264,649,343,377,133.0,96.0,50.0,85.0,82.0,389.0,763.0,289.0
46,89,93,151,266,575,303,352,124.0,98.0,52.0,83.0,75.0,352.0,732.0,288.0
44,85,82,133,235,521,274,309,120.0,104.0,52.0,90.0,74.0,401.0,756.0,298.0
47,91,82,138,231,609,247,352,95.0,102.0,51.0,91.0,67.0,407.0,673.0,277.0
49,93,85,138,254,628,224,341,99.0,106.0,46.0,88.0,62.0,366.0,689.0,311.0
48,87,79,134,269,606,189,317,99.0,106.0,47.0,80.0,59.0,306.0,605.0,305.0
51,84,77,128,271,544,224,318,93.0,96.0,46.0,78.0,72.0,290.0,540.0,287.0
46,79,69,116,277,532,211,324,86.0,84.0,47.0,73.0,90.0,217.0,405.0,236.0
44,74,63,104,255,390,183,242,84.0,76.0,73.0,60.0,91.0,194.0,340.0,209.0
40,63,54,92,209,288,164,211,67.0,67.0,76.0,64.0,96.0,172.0,223.0,118.0
35,65,43,68,164,219,158,173,51.0,56.0,80.0,57.0,103.0,152.0,144.0,87.0
31,63,34,52,119,192,51,119,47.0,56.0,86.0,62.0,114.0,132.0,85.0,59.0
32,60,41,65,136,172,55,90,47.0,53.0,90.0,81.0,145.0,141.0,76.0,54.0
31,63,45,72,133,157,49,83,50.0,73.0,134.0,98.0,148.0,158.0,70.0,49.0
38,70,57,80,141,158,46,72,51.0,85.0,172.0,99.0,157.0,198.0,78.0,49.0
38,71,78,85,139,157,46,53,53.0,90.0,183.0,107.0,155.0,209.0,78.0,46.0
44,74,79,86,141,154,44,41,57.0,97.0,211.0,107.0,146.0,217.0,73.0,44.0
45,77,90,80,80,75,32,34,56.0,104.0,262.0,104.0,142.0,233.0,80.0,43.0
47,80,98,75,76,71,31,38,51.0,97.0,246.0,114.0,166.0,245.0,91.0,44.0
44,99,112,76,59,66,33,39,51.0,90.0,228.0,125.0,167.0,232.0,79.0,37.0
44,114,117,81,60,60,33,39,48.0,95.0,272.0,125.0,172.0,272.0,80.0,36.0
41,127,122,82,57,55,31,32,44.0,92.0,304.0,139.0,182.0,286.0,95.0,36.0
39,132,150,82,63,55,32,35,45.0,94.0,284.0,142.0,178.0,315.0,94.0,40.0
38,130,152,87,63,57,32,32,55.0,110.0,348.0,138.0,166.0,326.0,92.0,40.0
39,140,156,86,69,46,31,34,63.0,117.0,362.0,137.0,164.0,352.0,100.0,45.0
38,142,149,79,66,44,29,35,111.0,137.0,357.0,181.0,165.0,316.0,98.0,55.0
39,169,155,91,67,45,32,40,122.0,171.0,374.0,189.0,162.0,324.0,103.0,66.0
69,212,149,101,61,48,36,39,129.0,182.0,472.0,212.0,153.0,313.0,109.0,67.0
75,223,156,99,71,51,42,45,136.0,208.0,471.0,232.0,152.0,358.0,104.0,66.0
83,253,169,100,74,54,43,51,135.0,209.0,513.0,256.0,148.0,327.0,96.0,68.0
92,258,210,126,85,55,44,56,109.0,228.0,671.0,256.0,145.0,328.0,96.0,62.0
94,251,227,124,95,62,48,57,170.0,252.0,703.0,308.0,153.0,313.0,84.0,65.0
79,274,281,134,98,60,48,58,203.0,320.0,742.0,348.0,166.0,333.0,77.0,84.0
98,294,320,142,115,62,57,77,217.0,321.0,790.0,361.0,167.0,268.0,77.0,85.0
106,290,362,147,141,70,61,78,254.0,367.0,801.0,375.0,174.0,302.0,77.0,85.0
108,308,385,129,142,72,62,80,284.0,402.0,755.0,409.0,203.0,304.0,84.0,94.0
117,324,399,138,141,71,59,82,273.0,455.0,763.0,390.0,198.0,307.0,90.0,100.0
121,310,413,150,154,77,61,88,297.0,508.0,773.0,363.0,176.0,258.0,87.0,96.0
124,378,406,153,183,87,59,92,306.0,508.0,772.0,369.0,181.0,245.0,89.0,105.0
129,399,393,155,204,94,67,104,321.0,540.0,807.0,359.0,190.0,242.0,105.0,123.0
131,422,374,159,214,102,71,103,313.0,532.0,777.0,327.0,163.0,262.0,109.0,119.0
131,490,382,151,223,103,74,106,308.0,519.0,851.0,355.0,156.0,262.0,104.0,109.0
136,520,390,140,216,101,76,106,267.0,451.0,821.0,355.0,162.0,283.0,103.0,97.0
133,465,376,129,183,91,72,93,242.0,445.0,784.0,325.0,143.0,281.0,101.0,88.0
119,476,372,123,137,79,60,74,184.0,403.0,717.0,302.0,119.0,255.0,90.0,66.0
121,442,350,114,111,63,54,78,148.0,368.0,665.0,271.0,113.0,240.0,83.0,61.0
115,379,326,109,86,59,52,71,118.0,300.0,497.0,187.0,110.0,238.0,89.0,61.0
103,312,235,81,79,55,46,65,99.0,252.0,375.0,141.0,104.0,207.0,86.0,59.0
83,308,221,73,66,49,46,58,94.0,236.0,351.0,125.0,110.0,220.0,91.0,60.0
78,230,159,62,57,47,47,56,86.0,160.0,337.0,118.0,110.0,239.0,104.0,48.0
59,226,168,58,60,76,45,42,79.0,137.0,331.0,112.0,114.0,347.0,136.0,49.0
47,149,143,51,80,153,43,39,69.0,108.0,312.0,104.0,112.0,376.0,136.0,45.0
48,140,158,58,102,212,45,56,62.0,93.0,295.0,92.0,103.0,385.0,148.0,43.0
43,116,144,61,113,252,41,59,58.0,81.0,221.0,84.0,96.0,410.0,155.0,39.0
41,102,142,66,126,332,45,69,45.0,65.0,183.0,74.0,90.0,397.0,148.0,36.0
39,83,118,67,134,363,51,70,40.0,64.0,137.0,65.0,74.0,305.0,115.0,32.0
40,80,103,67,122,342,51,70,35.0,58.0,77.0,54.0,68.0,276.0,123.0,39.0
32,60,74,60,107,324,54,55,43.0,57.0,68.0,50.0,71.0,256.0,111.0,51.0
33,54,67,64,107,314,57,62,43.0,58.0,59.0,48.0,66.0,196.0,92.0,57.0
34,52,55,58,104,238,55,80,56.0,60.0,54.0,48.0,72.0,183.0,88.0,62.0
38,51,48,56,93,177,52,80,64.0,61.0,54.0,46.0,79.0,259.0,111.0,69.0
36,44,46,57,97,170,56,82,78.0,66.0,58.0,46.0,77.0,261.0,115.0,70.0
37,48,41,56,101,169,51,86,174.0,71.0,57.0,48.0,78.0,284.0,124.0,91.0
35,46,44,58,123,200,58,105,198.0,76.0,60.0,45.0,81.0,321.0,134.0,138.0
37,49,45,61,122,227,70,159,211.0,77.0,60.0,43.0,75.0,331.0,138.0,150.0
34,49,46,64,126,258,76,172,217.0,78.0,53.0,44.0,69.0,314.0,140.0,161.0
41,52,49,69,131,271,80,183,216.0,77.0,52.0,48.0,74.0,375.0,141.0,168.0
45,53,51,86,175,300,95,204,175.0,77.0,53.0,46.0,70.0,373.0,147.0,190.0
48,57,49,91,167,314,109,231,154.0,75.0,56.0,47.0,64.0,346.0,143.0,169.0
46,53,48,90,171,297,107,198,134.0,71.0,55.0,44.0,62.0,351.0,142.0,165.0
46,51,46,90,172,282,106,211,126.0,68.0,55.0,43.0,60.0,310.0,135.0,157.0
40,52,44,90,175,303,111,207,123.0,64.0,53.0,38.0,51.0,203.0,117.0,175.0
37,52,42,74,133,266,108,207,80.0,65.0,47.0,37.0,49.0,181.0,98.0,139.0
31,51,37,62,134,218,91,169,67.0,62.0,45.0,38.0,49.0,173.0,91.0,128.0
35,55,38,59,131,223,86,159,67.0,67.0,45.0,39.0,54.0,138.0,81.0,119.0
35,63,44,58,127,213,81,128,53.0,66.0,48.0,37.0,53.0,121.0,55.0,113.0
37,72,49,49,113,166,67,119,48.0,66.0,64.0,46.0,68.0,109.0,50.0,62.0
38,77,49,48,103,155,48,72,53.0,64.0,77.0,50.0,85.0,98.0,49.0,60.0
38,86,54,55,80,128,37,52,53.0,67.0,96.0,59.0,111.0,95.0,53.0,57.0
38,93,60,59,67,110,38,43,54.0,70.0,152.0,101.0,124.0,85.0,52.0,49.0
38,96,62,66,65,102,36,32,54.0,70.0,179.0,106.0,128.0,107.0,54.0,47.0
36,96,79,79,71,91,34,25,54.0,70.0,192.0,108.0,139.0,114.0,59.0,51.0
35,93,92,83,68,78,35,29,53.0,73.0,198.0,120.0,143.0,108.0,57.0,47.0
34,89,93,81,63,75,35,27,54.0,83.0,244.0,132.0,152.0,122.0,58.0,47.0
29,102,107,78,59,38,25,29,47.0,83.0,241.0,138.0,169.0,161.0,58.0,47.0
33,146,110,87,55,42,29,31,50.0,91.0,285.0,163.0,188.0,159.0,57.0,48.0
39,150,118,85,48,39,29,30,57.0,102.0,317.0,168.0,187.0,154.0,54.0,48.0
41,179,135,90,51,40,28,30,61.0,106.0,370.0,165.0,184.0,164.0,55.0,45.0
44,205,152,99,57,41,29,35,66.0,108.0,372.0,162.0,177.0,195.0,54.0,44.0
46,209,152,110,57,43,31,34,79.0,140.0,467.0,193.0,169.0,198.0,56.0,51.0
43,205,189,99,61,42,30,37,132.0,205.0,637.0,227.0,182.0,199.0,66.0,64.0
41,220,236,102,66,45,34,42,137.0,216.0,679.0,239.0,184.0,201.0,67.0,64.0
43,237,309,106,74,55,45,52,155.0,252.0,739.0,272.0,192.0,209.0,71.0,71.0
48,266,366,112,79,61,54,63,174.0,274.0,834.0,319.0,217.0,221.0,84.0,85.0
55,278,445,130,89,66,58,70,181.0,308.0,858.0,316.0,218.0,207.0,88.0,83.0
59,292,475,137,99,74,67,81,167.0,294.0,819.0,307.0,192.0,226.0,87.0,76.0
81,316,490,137,102,76,67,89,179.0,303.0,890.0,348.0,192.0,239.0,91.0,81.0
105,368,489,142,114,77,68,96,194.0,341.0,853.0,383.0,213.0,226.0,88.0,85.0
118,367,499,144,129,75,66,93,199.0,396.0,855.0,428.0,213.0,185.0,77.0,83.0
145,396,502,152,131,77,69,95,221.0,407.0,927.0,522.0,239.0,183.0,82.0,94.0
179,408,508,155,138,74,64,104,223.0,410.0,942.0,561.0,254.0,176.0,85.0,96.0
191,409,601,179,142,77,67,112,302.0,490.0,939.0,614.0,329.0,226.0,124.0,126.0
189,367,594,202,135,71,63,111,311.0,540.0,1002.0,629.0,340.0,232.0,137.0,141.0
192,399,648,221,138,92,78,127,309.0,517.0,980.0,589.0,329.0,243.0,140.0,138.0
192,403,617,229,156,104,90,144,321.0,509.0,1002.0,560.0,331.0,249.0,140.0,138.0
184,404,602,231,154,102,92,147,323.0,500.0,978.0,520.0,337.0,249.0,141.0,143.0
177,474,573,240,151,107,94,142,245.0,420.0,924.0,433.0,270.0,210.0,112.0,114.0
172,489,566,224,164,114,97,147,210.0,299.0,856.0,370.0,233.0,212.0,100.0,89.0
162,455,474,205,147,97,84,132,195.0,246.0,785.0,345.0,219.0,203.0,98.0,83.0
144,424,457,173,118,78,67,113,135.0,195.0,565.0,230.0,175.0,234.0,122.0,70.0
116,393,428,163,104,75,61,95,102.0,176.0,438.0,198.0,147.0,314.0,165.0,58.0
98,265,276,112,115,194,53,86,86.0,144.0,332.0,163.0,125.0,323.0,167.0,53.0
84,194,234,86,94,221,49,66,75.0,122.0,224.0,122.0,134.0,392.0,189.0,59.0
77,144,171,57,100,230,53,83,67.0,117.0,183.0,116.0,136.0,489.0,229.0,69.0
62,105,125,61,126,338,56,79,58.0,88.0,162.0,82.0,130.0,481.0,225.0,80.0
52,86,106,59,151,385,58,92,55.0,86.0,168.0,76.0,113.0,441.0,203.0,77.0
43,77,97,65,152,377,60,95,53.0,83.0,139.0,72.0,103.0,430.0,202.0,76.0
40,68,62,60,147,368,59,95,51.0,74.0,129.0,59.0,99.0,380.0,188.0,72.0
37,77,73,63,150,385,57,79,62.0,73.0,126.0,58.0,88.0,241.0,137.0,62.0
37,74,70,64,145,340,60,78,75.0,66.0,125.0,53.0,82.0,241.0,127.0,121.0
37,76,76,72,128,305,72,86,78.0,53.0,84.0,45.0,86.0,253.0,127.0,128.0
32,83,79,74,127,277,89,139,107.0,52.0,52.0,38.0,85.0,262.0,129.0,137.0
36,79,72,77,136,292,88,143,112.0,55.0,51.0,50.0,70.0,258.0,131.0,151.0
37,65,57,74,133,282,93,155,116.0,55.0,48.0,53.0,70.0,277.0,140.0,210.0
38,65,56,75,132,281,103,194,113.0,66.0,47.0,58.0,69.0,307.0,146.0,186.0
41,66,52,69,142,279,97,226,122.0,72.0,49.0,61.0,66.0,326.0,132.0,211.0
47,65,50,72,134,298,96,254,107.0,78.0,49.0,62.0,68.0,331.0,125.0,220.0
47,70,51,80,152,309,113,274,124.0,81.0,50.0,54.0,61.0,338.0,130.0,222.0
47,72,51,85,166,343,118,382,153.0,82.0,54.0,56.0,63.0,394.0,166.0,215.0
48,74,53,92,160,317,140,390,177.0,86.0,60.0,54.0,73.0,481.0,168.0,237.0
49,79,67,115,171,356,167,407,175.0,95.0,61.0,67.0,74.0,592.0,207.0,234.0
49,87,74,126,204,430,188,403,177.0,122.0,71.0,73.0,77.0,626.0,235.0,253.0
49,95,81,148,270,506,202,437,170.0,130.0,70.0,77.0,78.0,636.0,229.0,252.0
56,102,85,154,285,485,205,368,143.0,138.0,72.0,85.0,97.0,669.0,218.0,236.0
54,99,87,155,298,520,190,348,107.0,133.0,65.0,87.0,88.0,648.0,235.0,211.0
51,100,87,154,341,584,169,311,97.0,125.0,62.0,74.0,86.0,531.0,203.0,186.0
47,92,82,145,341,555,138,289,84.0,95.0,52.0,71.0,84.0,496.0,183.0,150.0
46,80,74,118,284,479,105,211,68.0,76.0,47.0,67.0,79.0,476.0,178.0,135.0
36,67,71,107,266,470,87,165,58.0,57.0,45.0,51.0,57.0,366.0,155.0,93.0
37,75,67,97,247,423,73,146,55.0,51.0,57.0,57.0,86.0,247.0,110.0,85.0
36,67,52,72,159,272,59,120,51.0,50.0,58.0,70.0,104.0,216.0,101.0,79.0
34,62,45,70,105,163,48,70,50.0,59.0,113.0,88.0,104.0,164.0,74.0,59.0
34,71,61,69,93,120,38,60,49.0,62.0,129.0,90.0,116.0,144.0,64.0,58.0
35,97,81,76,71,94,31,45,44.0,70.0,132.0,113.0,132.0,140.0,59.0,49.0
33,105,85,81,66,111,38,42,48.0,76.0,179.0,124.0,128.0,111.0,49.0,45.0
32,112,86,85,57,107,40,36,51.0,80.0,211.0,127.0,138.0,133.0,52.0,41.0
32,121,98,90,59,102,39,35,46.0,73.0,207.0,134.0,158.0,151.0,51.0,38.0
31,118,95,90,64,97,39,33,52.0,77.0,246.0,149.0,182.0,192.0,65.0,37.0
33,102,93,90,68,96,39,30,61.0,82.0,336.0,145.0,217.0,239.0,78.0,50.0
36,105,119,100,70,60,35,27,62.0,85.0,355.0,141.0,223.0,252.0,79.0,50.0
45,115,129,104,76,60,40,33,81.0,131.0,398.0,153.0,222.0,256.0,80.0,52.0
51,123,128,104,81,60,40,33,102.0,163.0,464.0,150.0,214.0,251.0,84.0,58.0
55,173,132,108,75,58,39,35,106.0,169.0,501.0,151.0,199.0,231.0,82.0,62.0
56,189,162,125,79,61,44,41,116.0,192.0,609.0,163.0,147.0,178.0,70.0,65.0
63,217,196,119,87,54,41,49,132.0,231.0,673.0,170.0,131.0,165.0,72.0,70.0
61,295,240,119,99,52,39,48,142.0,233.0,696.0,182.0,107.0,149.0,71.0,74.0
59,349,310,121,94,51,40,50,186.0,253.0,732.0,281.0,138.0,186.0,88.0,82.0
68,371,336,134,117,50,41,61,218.0,287.0,737.0,326.0,180.0,212.0,101.0,97.0
80,381,426,142,136,60,50,82,257.0,362.0,708.0,359.0,206.0,218.0,101.0,99.0
94,376,459,142,157,76,56,94,283.0,378.0,679.0,370.0,210.0,216.0,105.0,100.0
108,377,477,137,152,75,56,96,326.0,455.0,677.0,513.0,239.0,219.0,106.0,101.0
125,382,470,138,159,78,64,109,355.0,494.0,697.0,604.0,288.0,219.0,104.0,116.0
131,411,542,161,151,79,67,108,369.0,558.0,825.0,606.0,308.0,214.0,107.0,119.0
162,494,604,196,179,85,73,112,390.0,531.0,864.0,640.0,321.0,247.0,120.0,117.0
187,530,624,215,192,96,79,123,385.0,520.0,846.0,646.0,326.0,255.0,121.0,115.0
194,499,673,229,199,99,84,132,361.0,500.0,911.0,539.0,312.0,249.0,121.0,116.0
188,497,720,239,217,105,83,125,334.0,482.0,945.0,390.0,264.0,223.0,120.0,107.0
197,495,688,241,232,111,90,140,315.0,394.0,861.0,389.0,210.0,198.0,100.0,89.0
170,430,609,214,203,100,80,128,262.0,378.0,765.0,323.0,215.0,155.0,97.0,92.0
144,387,567,201,173,79,71,112,259.0,374.0,862.0,331.0,212.0,157.0,93.0,91.0
142,380,485,201,175,80,67,106,247.0,306.0,804.0,363.0,241.0,185.0,101.0,94.0
139,337,425,192,150,74,65,106,209.0,251.0,765.0,388.0,228.0,185.0,91.0,75.0
125,274,388,160,120,65,55,88,181.0,247.0,748.0,354.0,231.0,180.0,95.0,77.0
121,237,362,148,118,65,54,84,164.0,225.0,770.0,329.0,205.0,196.0,89.0,65.0
110,264,340,138,121,64,53,80,117.0,197.0,679.0,299.0,195.0,184.0,86.0,59.0
91,265,324,115,105,62,50,74,105.0,198.0,690.0,287.0,164.0,170.0,96.0,64.0
85,282,279,102,100,59,48,70,,,,,,,,
