Channel_1,Channel_2,Channel_3,Channel_4,Channel_5,Channel_6,Channel_7,Channel_8,Channel_9,Channel_10,Channel_11,Channel_12,Channel_13,Channel_14,Channel_15,Channel_16,Palm_tip_x,Thumb_tip_x,Index_tip_x,Middle_tip_x,Ring_tip_x,Pinky_tip_x,Palm_tip_y,Thumb_tip_y,Index_tip_y,Middle_tip_y,Ring_tip_y,Pinky_tip_y,Palm_tip_z,Thumb_tip_z,Index_tip_z,Middle_tip_z,Ring_tip_z,Pinky_tip_z
35,65,38,38,39,44,26,44,49,122,168,126,415,104,140,173,15.347139358520508,68.25003814697266,55.35136795043945,32.95146560668945,13.647067070007324,-9.077469825744629,31.285842895507812,1.5002647638320923,-56.46090316772461,-70.39710998535156,-65.0628890991211,-46.04716491699219,112.51254272460938,79.16341400146484,109.36448669433594,119.35405731201172,133.1656494140625,135.35427856445312
38,65,43,43,46,48,29,46,48,127,228,167,551,120,162,228,16.834102630615234,69.25700378417969,57.461727142333984,35.38486862182617,16.363300323486328,-6.5504150390625,30.6650333404541,1.0273295640945435,-56.768089294433594,-70.7955093383789,-65.52566528320312,-46.68476486206055,112.18975830078125,77.92530822753906,108.77050018310547,119.28729248046875,133.62335205078125,136.1957550048828
40,68,44,43,51,49,30,50,46,135,263,195,629,137,179,263,18.110029220581055,70.1729965209961,59.27223587036133,37.464637756347656,18.6667423248291,-4.414237976074219,30.204181671142578,0.7218153476715088,-56.956661224365234,-71.06497192382812,-65.86021423339844,-47.17426300048828,112.01167297363281,77.03595733642578,108.34947967529297,119.24101257324219,134.00746154785156,136.8712158203125
40,72,46,44,53,50,30,51,44,149,289,212,687,151,193,288,19.346105575561523,71.14383697509766,60.92650604248047,39.34311294555664,20.734088897705078,-2.4807426929473877,29.698755264282227,0.36501502990722656,-57.237220764160156,-71.41339874267578,-66.26869201660156,-47.70350646972656,111.97074127197266,76.40868377685547,108.05198669433594,119.25608825683594,134.33961486816406,137.4948272705078
41,69,47,44,57,51,33,50,47,156,298,228,730,157,195,300,21.22776222229004,72.99868774414062,63.77192306518555,42.50600814819336,24.097097396850586,0.598894476890564,28.57000160217285,-0.6635796427726746,-57.89331817626953,-72.1069564819336,-66.99874877929688,-48.66350555419922,111.58490753173828,75.74198913574219,108.2978515625,119.86506652832031,135.4186553955078,138.799072265625
40,61,48,41,54,47,35,45,45,161,310,238,756,160,185,303,22.042404174804688,73.82158660888672,64.81367492675781,43.60935974121094,25.269868850708008,1.690688967704773,28.17292594909668,-0.9851779937744141,-58.16566467285156,-72.38148498535156,-67.31881713867188,-49.038455963134766,111.7635726928711,75.78398895263672,108.48938751220703,120.06221771240234,135.82423400878906,139.35655212402344
38,61,46,42,50,46,33,44,43,163,298,237,755,158,184,296,22.76804542541504,74.60594177246094,65.65731811523438,44.45840072631836,26.180126190185547,2.516758441925049,27.868022918701172,-1.1998368501663208,-58.40010070800781,-72.6213607788086,-67.59339904785156,-49.35429382324219,112.1483383178711,76.09458923339844,108.81278991699219,120.34136962890625,136.30557250976562,139.88656616210938
34,63,46,41,46,45,33,38,40,165,298,243,772,158,186,300,23.39282989501953,75.31796264648438,66.35945129394531,45.15068435668945,26.886606216430664,3.141815423965454,27.567285537719727,-1.3943631649017334,-58.64595031738281,-72.88704681396484,-67.90945434570312,-49.70587158203125,112.76631927490234,76.6877670288086,109.3101577758789,120.7763671875,136.83152770996094,140.4571990966797
33,56,43,41,49,45,32,38,41,160,284,237,743,153,179,288,23.845266342163086,75.94904327392578,66.88032531738281,45.64713668823242,27.32657814025879,3.4848012924194336,27.349822998046875,-1.523452877998352,-58.818878173828125,-73.07701110839844,-68.14131927490234,-49.97377014160156,113.43299102783203,77.48011016845703,110.00082397460938,121.40821838378906,137.4121856689453,140.9962158203125
39,66,42,43,54,48,32,45,34,145,258,212,662,141,161,258,24.06792640686035,76.46338653564453,67.18080139160156,45.91535186767578,27.50570297241211,3.554692029953003,27.15464973449707,-1.6180247068405151,-58.96599578857422,-73.23973846435547,-68.33507537841797,-50.20785903930664,114.11589813232422,78.42638397216797,110.83116912841797,122.17765045166016,138.0944366455078,141.5354461669922
40,70,41,42,56,46,27,43,36,125,226,182,567,122,144,223,24.53398895263672,78.70744323730469,67.92921447753906,46.121978759765625,26.952539443969727,3.3132517337799072,27.302547454833984,-1.0597889423370361,-57.80244445800781,-72.7280044555664,-68.4968490600586,-50.520469665527344,117.72540283203125,83.55374908447266,113.43484497070312,124.76792907714844,138.6482391357422,144.42530822753906
41,72,39,40,54,44,27,46,34,102,183,148,440,100,119,180,24.055612564086914,79.20602416992188,67.39704895019531,45.521995544433594,25.48311996459961,2.0095720291137695,27.113142013549805,-1.2997239828109741,-57.87001419067383,-72.84793853759766,-68.84950256347656,-50.94670104980469,118.74461364746094,85.90918731689453,115.05750274658203,126.12284088134766,138.2066192626953,144.4423828125
42,70,40,39,53,43,27,45,35,75,129,95,279,73,82,113,23.278043746948242,79.21994018554688,66.5108642578125,44.446998596191406,23.984386444091797,0.236073300242424,26.924482345581055,-1.5829567909240723,-58.060420989990234,-73.03434753417969,-69.10283660888672,-51.37387466430664,119.58181762695312,87.98957061767578,116.64673614501953,127.28377532958984,138.58480834960938,143.88856506347656
41,72,43,38,50,40,27,43,32,59,97,58,148,51,49,63,22.014999389648438,78.83731079101562,65.13719940185547,42.7294807434082,22.04659080505371,-2.0808136463165283,26.664535522460938,-1.8690013885498047,-58.358863830566406,-73.33975982666016,-69.40843963623047,-51.88692092895508,120.46852111816406,90.37677001953125,118.38899230957031,128.15716552734375,139.33062744140625,142.96084594726562
35,66,43,35,40,31,27,35,35,56,93,52,124,50,48,57,20.178728103637695,78.20829772949219,63.1363410949707,40.26403045654297,19.226835250854492,-5.185778617858887,26.26764678955078,-2.0973784923553467,-58.820899963378906,-73.8604507446289,-70.00139617919922,-52.61997985839844,121.46892547607422,93.44978332519531,120.16057586669922,128.62266540527344,139.2653045654297,141.28732299804688
33,61,40,32,37,35,26,34,34,54,80,44,101,47,45,49,17.982986450195312,77.25145721435547,60.36204147338867,36.93737030029297,15.454319953918457,-8.996857643127441,25.923492431640625,-2.4638631343841553,-59.43960189819336,-74.43388366699219,-70.60285186767578,-53.16611099243164,122.3196792602539,96.84458923339844,121.85880279541016,128.68045043945312,138.32313537597656,138.94825744628906
31,55,40,29,38,32,25,29,35,54,87,43,78,47,38,44,15.42535400390625,75.79613494873047,56.884517669677734,32.923606872558594,11.030567169189453,-13.23460865020752,25.538911819458008,-3.0720269680023193,-60.25125503540039,-75.08868408203125,-71.22579956054688,-53.60187911987305,123.2082290649414,100.5449447631836,123.50955963134766,128.42576599121094,137.00653076171875,136.1912078857422
30,52,38,31,42,39,27,37,36,55,83,37,57,45,35,40,10.42106819152832,72.13053894042969,49.27861022949219,24.574237823486328,2.0763442516326904,-21.23859214782715,25.03873062133789,-4.635053634643555,-61.906707763671875,-76.10639190673828,-71.94246673583984,-53.647987365722656,124.376220703125,106.90935516357422,125.57410430908203,126.94985961914062,133.3426971435547,129.9149932861328
34,51,38,31,44,40,28,37,35,51,86,37,52,45,31,37,8.027362823486328,70.21836853027344,45.710113525390625,20.848831176757812,-1.8191783428192139,-24.58437156677246,24.703107833862305,-5.44485330581665,-62.72957992553711,-76.58912658691406,-72.27632904052734,-53.65568161010742,124.64865112304688,109.58575439453125,126.01554870605469,125.66120910644531,130.9081573486328,126.52879333496094
34,44,37,32,45,44,27,37,36,50,81,37,51,39,31,35,5.808966159820557,68.39155578613281,42.47998809814453,17.615745544433594,-5.114714622497559,-27.383800506591797,24.46925926208496,-6.070830345153809,-63.362831115722656,-76.88228607177734,-72.43476867675781,-53.52949905395508,124.78515625,112.00452423095703,126.0737075805664,124.01139068603516,128.0297393798828,122.99417877197266
36,44,48,35,43,41,29,43,33,53,82,45,56,39,28,35,3.5736663341522217,66.47606658935547,39.339717864990234,14.603792190551758,-8.050559043884277,-29.81673240661621,24.40988540649414,-6.506887912750244,-63.75893783569336,-76.92879486083984,-72.34347534179688,-53.179141998291016,124.71102905273438,114.29379272460938,126.00114440917969,122.2491683959961,125.068115234375,119.33006286621094
38,43,49,36,42,41,32,42,33,52,74,45,53,37,26,31,1.4001679420471191,64.47079467773438,36.214107513427734,11.666841506958008,-10.731307983398438,-31.983362197875977,24.466352462768555,-6.918472766876221,-64.04193115234375,-76.84964752197266,-72.04231262207031,-52.623233795166016,124.55844116210938,116.44276428222656,125.84304809570312,120.61155700683594,122.0998306274414,115.78305053710938
38,39,50,38,39,34,32,37,30,48,76,46,55,37,27,36,-0.7410455942153931,62.345619201660156,33.129913330078125,8.82719898223877,-13.444194793701172,-33.82372283935547,24.457576751708984,-7.457763671875,-64.36688995361328,-76.82544708251953,-71.84186553955078,-52.100074768066406,124.38397979736328,118.25482177734375,125.7402114868164,119.30818176269531,119.99674987792969,112.7394027709961
37,37,49,40,32,31,35,36,30,49,67,48,52,36,31,35,-4.418333053588867,58.562774658203125,27.95186424255371,4.185215473175049,-17.67902946472168,-36.56761169433594,24.382307052612305,-8.3883638381958,-64.93934631347656,-76.83516693115234,-71.52847290039062,-51.359615325927734,124.28960418701172,120.94254302978516,125.96640014648438,117.77772521972656,117.1815414428711,108.9066390991211
38,37,50,40,31,25,38,39,27,54,71,47,65,40,32,38,-6.133204936981201,56.829734802246094,25.738889694213867,2.3778698444366455,-19.000110626220703,-37.4730339050293,24.31014633178711,-8.723992347717285,-65.15673828125,-76.85419464111328,-71.3885726928711,-51.17180633544922,124.26383209228516,122.27552032470703,126.38865661621094,117.38262939453125,115.9501953125,107.45232391357422
34,41,52,42,35,27,37,32,32,58,73,41,74,40,32,36,-7.6406683921813965,55.253204345703125,23.696767807006836,0.8822408318519592,-19.964374542236328,-37.85063934326172,24.244108200073242,-9.07423210144043,-65.37198638916016,-76.84867095947266,-71.2139663696289,-50.94114685058594,124.29312896728516,123.84574127197266,126.9635009765625,117.01569366455078,114.66189575195312,105.9101791381836
33,42,52,42,35,27,35,33,32,57,76,42,76,37,35,35,-9.052234649658203,53.68226623535156,21.64763641357422,-0.4744105339050293,-20.90682029724121,-37.95000076293945,24.237934112548828,-9.423221588134766,-65.55754089355469,-76.76298522949219,-71.00192260742188,-50.583011627197266,124.3050765991211,125.6105728149414,127.5687026977539,116.53638458251953,113.40045166015625,104.18965911865234
31,44,55,44,34,39,34,37,33,58,77,40,76,36,33,32,-10.349479675292969,52.15317153930664,19.559675216674805,-1.689847469329834,-21.38422203063965,-37.86064529418945,24.23431968688965,-9.776140213012695,-65.78990173339844,-76.66681671142578,-70.6701431274414,-50.21866989135742,124.21210479736328,127.38648986816406,128.1617889404297,115.99993896484375,111.77550506591797,102.54425811767578
30,45,57,43,35,40,30,39,35,56,77,42,79,36,31,33,-11.074771881103516,50.99664306640625,17.72983169555664,-2.693942070007324,-21.626876831054688,-37.035621643066406,24.427631378173828,-10.152515411376953,-65.91290283203125,-76.44074249267578,-70.16751861572266,-49.545562744140625,124.09492492675781,129.26773071289062,128.8556671142578,115.62165832519531,110.43194580078125,100.99064636230469
29,44,56,43,36,42,27,35,34,53,75,43,69,33,32,35,-12.047758102416992,49.01082992553711,14.697492599487305,-3.9876439571380615,-21.480907440185547,-35.329856872558594,24.68777084350586,-11.009836196899414,-66.20539093017578,-76.1103744506836,-69.37294006347656,-48.533721923828125,123.86587524414062,132.18630981445312,130.1090545654297,115.00141143798828,108.3126220703125,98.72808074951172
28,44,66,43,33,42,29,39,30,45,73,45,65,35,33,38,-12.047758102416992,49.01082992553711,14.697492599487305,-3.9876439571380615,-21.480907440185547,-35.329856872558594,24.68777084350586,-11.009836196899414,-66.20539093017578,-76.1103744506836,-69.37294006347656,-48.533721923828125,123.86587524414062,132.18630981445312,130.1090545654297,115.00141143798828,108.3126220703125,98.72808074951172
30,47,101,43,36,42,30,42,29,42,88,44,69,35,30,37,-12.832806587219238,47.01618957519531,11.591659545898438,-4.918132305145264,-21.211135864257812,-33.649112701416016,24.886978149414062,-11.851787567138672,-66.58736419677734,-75.82878112792969,-68.78285217285156,-47.67307662963867,123.56019592285156,135.4309844970703,131.34364318847656,114.24911499023438,106.5123519897461,96.49044799804688
31,52,109,40,37,36,31,42,31,43,91,46,68,34,30,36,-13.009964942932129,46.29295349121094,10.26392936706543,-5.301430702209473,-21.177825927734375,-32.99053955078125,24.8568115234375,-12.395109176635742,-66.90042114257812,-75.83551025390625,-68.6850357055664,-47.40639114379883,123.60321044921875,136.75851440429688,131.91180419921875,114.04808807373047,106.08839416503906,95.7766342163086
29,54,123,41,41,36,32,42,29,39,101,51,64,31,33,37,-13.218153953552246,45.307735443115234,8.488517761230469,-6.041410446166992,-21.29981803894043,-32.4597053527832,24.69649314880371,-13.31425666809082,-67.44085693359375,-75.99395751953125,-68.64659881591797,-47.138004302978516,123.75164031982422,138.48995971679688,132.48123168945312,113.74870300292969,105.50739288330078,94.78253173828125
28,53,134,42,43,37,32,42,30,37,101,52,67,33,31,33,-13.433456420898438,44.24357223510742,6.657138824462891,-6.80303430557251,-21.391748428344727,-31.967191696166992,24.558412551879883,-14.194068908691406,-67.9493637084961,-76.12248229980469,-68.55790710449219,-46.859981536865234,123.84508514404297,140.24371337890625,132.92898559570312,113.35326385498047,104.6977767944336,93.75350189208984
30,57,147,39,43,36,30,39,27,41,106,52,61,30,30,28,-13.599750518798828,43.2325325012207,4.906407833099365,-7.527352809906006,-21.539287567138672,-31.474681854248047,24.453205108642578,-14.997017860412598,-68.3990478515625,-76.22684478759766,-68.4931869506836,-46.61097717285156,123.92082214355469,141.80970764160156,133.3844757080078,113.04923248291016,104.16577911376953,92.98766326904297
29,69,169,40,44,39,29,43,29,45,146,51,57,36,35,31,-13.900067329406738,41.60231018066406,2.4812653064727783,-8.57267951965332,-21.724740982055664,-30.82767677307129,24.17104721069336,-16.241744995117188,-69.11376953125,-76.55789184570312,-68.47095489501953,-46.36884689331055,124.14643096923828,144.2211151123047,133.88357543945312,112.80598449707031,103.22239685058594,91.88465881347656
34,88,178,44,46,38,31,45,26,46,181,56,59,47,41,37,-15.003195762634277,36.79985427856445,-3.5292673110961914,-11.555066108703613,-22.522571563720703,-29.452468872070312,23.257659912109375,-19.304012298583984,-70.88844299316406,-77.60625457763672,-68.69977569580078,-46.06608581542969,124.7408447265625,150.05091857910156,134.58277893066406,112.33892822265625,101.16658782958984,89.46797943115234
35,109,179,43,44,38,31,44,32,49,202,63,61,52,44,44,-15.63414478302002,34.27244186401367,-6.729561805725098,-13.425649642944336,-23.323925018310547,-29.27932357788086,22.93505859375,-20.602764129638672,-71.53935241699219,-78.03594970703125,-68.81246948242188,-46.004798889160156,124.89820861816406,152.39703369140625,134.9779052734375,112.3709945678711,100.66742706298828,88.88640594482422
35,111,182,43,43,41,30,44,36,57,214,76,58,60,53,46,-16.419742584228516,31.38001251220703,-10.36256217956543,-15.82576847076416,-24.72712516784668,-29.59836196899414,22.61420249938965,-21.986425399780273,-72.1318359375,-78.45952606201172,-68.97193145751953,-46.00371551513672,124.96408081054688,154.47622680664062,135.310791015625,112.41048431396484,100.36071014404297,88.5409164428711
37,118,170,45,46,44,33,46,38,55,251,95,57,64,55,47,-17.334888458251953,28.077472686767578,-14.416245460510254,-18.836164474487305,-26.810832977294922,-30.44097137451172,22.361888885498047,-23.370277404785156,-72.57029724121094,-78.81166076660156,-69.11046600341797,-45.989524841308594,124.97993469238281,156.4721221923828,135.61129760742188,112.5457992553711,100.28131866455078,88.38743591308594
38,128,136,49,45,45,35,38,37,58,231,97,55,69,54,46,-18.562061309814453,24.24765396118164,-19.07429313659668,-22.58575439453125,-29.69774055480957,-31.923307418823242,22.10467529296875,-24.8613224029541,-72.92465209960938,-79.08987426757812,-69.20744323730469,-45.94204330444336,124.99856567382812,158.22926330566406,135.7697296142578,112.51288604736328,100.20116424560547,88.21977233886719
35,121,137,46,42,130,32,35,38,57,215,96,54,65,53,47,-20.433931350708008,17.208690643310547,-27.819034576416016,-30.42353057861328,-35.40862274169922,-35.14787292480469,21.971920013427734,-27.180633544921875,-72.8488998413086,-79.13345336914062,-68.94365692138672,-45.642791748046875,124.68944549560547,160.6621856689453,135.88589477539062,112.6084213256836,99.9649429321289,88.16498565673828
36,103,129,49,42,168,33,33,36,65,202,89,60,62,49,41,-20.732866287231445,14.86430549621582,-30.89698028564453,-33.199886322021484,-37.40099334716797,-36.27434158325195,22.060226440429688,-27.8874568939209,-72.5391845703125,-78.92013549804688,-68.66095733642578,-45.402706146240234,124.47534942626953,161.19906616210938,135.85079956054688,112.6112289428711,99.88593292236328,88.24980926513672
38,104,119,49,43,168,32,45,36,58,193,78,61,62,68,54,-21.331762313842773,12.404204368591309,-34.107872009277344,-36.183929443359375,-39.632659912109375,-37.467498779296875,22.130159378051758,-28.446964263916016,-72.232666015625,-78.67225646972656,-68.37156677246094,-45.14448165893555,124.3248062133789,161.8304901123047,135.7238311767578,112.48833465576172,99.7662124633789,88.2322769165039
39,96,115,48,40,172,29,43,41,66,150,57,66,98,139,58,-21.59234046936035,10.768671035766602,-36.45581817626953,-38.34147644042969,-41.24407196044922,-38.2944221496582,22.106258392333984,-28.847190856933594,-72.0353012084961,-78.55219268798828,-68.22499084472656,-45.04884338378906,124.2181167602539,162.38845825195312,135.70370483398438,112.48603820800781,99.71935272216797,88.34068298339844
38,77,112,45,39,175,29,47,42,63,142,54,70,99,180,58,-21.476280212402344,8.940570831298828,-38.84318923950195,-40.57377624511719,-42.84329605102539,-38.217552185058594,21.95083236694336,-29.346595764160156,-71.98359680175781,-78.60248565673828,-68.16724395751953,-45.02508544921875,123.91921997070312,163.21975708007812,134.975830078125,112.02522277832031,99.24345397949219,87.7829360961914
36,66,88,41,38,135,36,46,53,68,137,62,68,104,189,57,-21.476280212402344,8.940570831298828,-38.84318923950195,-40.57377624511719,-42.84329605102539,-38.217552185058594,21.95083236694336,-29.346595764160156,-71.98359680175781,-78.60248565673828,-68.16724395751953,-45.02508544921875,123.91921997070312,163.21975708007812,134.975830078125,112.02522277832031,99.24345397949219,87.7829360961914
37,89,86,37,41,163,37,54,51,58,122,63,67,106,196,56,-19.632822036743164,7.2910566329956055,-35.34836959838867,-36.41796875,-36.07244873046875,-29.806495666503906,19.37217140197754,-30.884063720703125,-75.2310791015625,-81.86885070800781,-71.34578704833984,-47.930755615234375,122.7195053100586,166.16578674316406,131.078369140625,108.78915405273438,95.54908752441406,84.57708740234375
35,91,80,36,62,193,39,44,52,64,118,63,64,104,193,71,-18.720277786254883,8.038172721862793,-31.400575637817383,-32.14809799194336,-30.653736114501953,-25.098777770996094,18.315567016601562,-30.74604606628418,-76.83136749267578,-83.54877471923828,-73.0147476196289,-49.340641021728516,122.22276306152344,167.53306579589844,129.94039916992188,107.7557373046875,94.59796142578125,83.66423797607422
36,101,87,38,99,192,40,48,49,75,108,57,61,70,162,68,-17.90340232849121,7.543926239013672,-27.20768928527832,-26.469810485839844,-24.47450065612793,-19.31777572631836,17.875873565673828,-28.96448516845703,-77.58927917480469,-84.8077163696289,-74.45822143554688,-50.755332946777344,121.12079620361328,169.7372589111328,129.98622131347656,107.9674301147461,94.7574691772461,83.53108215332031
38,128,91,43,117,189,43,49,51,79,115,59,59,63,133,73,-16.586627960205078,7.165324687957764,-22.09627342224121,-19.22760772705078,-17.68355369567871,-12.72710132598877,17.93507194519043,-26.084732055664062,-77.61146545410156,-85.40469360351562,-75.4176254272461,-51.77787780761719,120.19548034667969,172.39056396484375,131.3258056640625,109.65126037597656,96.20209503173828,84.37617492675781
41,175,89,48,121,186,39,63,40,86,107,49,61,54,121,72,-14.819544792175293,7.2167067527771,-15.744754791259766,-10.597042083740234,-9.586203575134277,-5.3179731369018555,18.204448699951172,-22.745285034179688,-77.1771469116211,-85.37290954589844,-75.82374572753906,-52.25893020629883,119.41878509521484,174.91380310058594,133.1608123779297,112.04954528808594,98.0689926147461,85.6486587524414
41,184,93,49,120,125,38,74,41,89,112,55,59,53,113,77,-12.549980163574219,7.909769535064697,-8.382495880126953,-1.033037781715393,-0.18763652443885803,2.826390504837036,18.548603057861328,-19.377851486206055,-76.33935546875,-84.67308807373047,-75.55078125,-52.14290237426758,118.78887939453125,177.08059692382812,135.2125244140625,114.79314422607422,100.32708740234375,87.18412780761719
39,193,109,52,112,67,39,78,38,85,109,54,61,51,107,55,-7.3585309982299805,10.370969772338867,5.318718433380127,16.19194793701172,16.886619567871094,18.193666458129883,18.007884979248047,-15.419934272766113,-75.29182434082031,-83.22174072265625,-74.79096984863281,-51.73832321166992,118.40643310546875,180.39569091796875,139.16964721679688,120.12583923339844,104.8984603881836,90.84828186035156
36,205,103,52,82,61,41,78,42,68,105,53,59,51,102,61,-4.853743553161621,12.149153709411621,11.075440406799316,22.688045501708984,23.144914627075195,24.28803062438965,17.525760650634766,-13.31656265258789,-74.47311401367188,-82.56248474121094,-74.75193786621094,-51.916725158691406,118.31010437011719,181.88514709472656,142.26434326171875,123.94600677490234,107.74374389648438,93.56561279296875
32,188,90,45,52,59,39,80,48,65,94,49,55,60,113,56,-2.872065782546997,13.547077178955078,16.475229263305664,28.714624404907227,29.17612648010254,29.753890991210938,16.96851921081543,-12.504292488098145,-73.93785858154297,-81.79764556884766,-74.21855926513672,-51.473880767822266,118.44721984863281,182.872802734375,143.84861755371094,126.03457641601562,109.39945220947266,95.09352111816406
32,150,89,42,44,48,40,77,50,52,94,53,52,60,114,55,-0.7486839294433594,14.774063110351562,21.085796356201172,33.78630447387695,34.460880279541016,34.7031135559082,16.742233276367188,-10.91186237335205,-72.82500457763672,-80.61140441894531,-73.57733917236328,-51.09764099121094,118.67599487304688,184.16778564453125,146.5194549560547,130.09893798828125,111.9183120727539,97.3431625366211
33,130,83,41,41,46,40,74,57,62,89,48,50,60,119,52,1.5534714460372925,17.401634216308594,27.46990394592285,40.389976501464844,41.116451263427734,40.477108001708984,16.8453311920166,-9.08435344696045,-71.01217651367188,-78.52476501464844,-71.84796905517578,-49.60261535644531,118.82667541503906,184.98345947265625,148.42236328125,132.85513305664062,113.53150177001953,98.7107925415039
33,114,63,36,35,48,39,88,68,84,83,49,53,59,124,64,3.952306032180786,20.81180191040039,34.847496032714844,47.92375946044922,48.399959564208984,46.591732025146484,17.387109756469727,-7.804762840270996,-68.7475814819336,-75.66871643066406,-68.9775619506836,-46.793785095214844,118.95287322998047,185.18118286132812,148.66470336914062,133.32357788085938,113.60845947265625,98.74544525146484
34,85,61,36,34,51,46,104,69,88,101,52,54,60,123,61,7.986083507537842,26.825576782226562,47.49852752685547,61.3193359375,60.667381286621094,56.8044548034668,18.457120895385742,-6.084773540496826,-64.29581451416016,-69.76531982421875,-63.076507568359375,-40.9183464050293,119.83418273925781,185.83578491210938,148.66207885742188,132.47265625,113.42121124267578,98.77642059326172
39,90,65,36,35,59,50,111,66,87,108,53,56,46,100,64,9.863987922668457,29.092090606689453,53.342803955078125,67.79179382324219,66.60980224609375,61.75255584716797,19.161104202270508,-4.363504886627197,-61.20831298828125,-65.96529388427734,-59.659122467041016,-37.79082107543945,120.18162536621094,186.46884155273438,149.8234405517578,133.25015258789062,114.52389526367188,99.78977966308594
40,91,66,37,38,56,49,110,64,85,105,49,57,45,102,71,11.752646446228027,31.136112213134766,59.106056213378906,74.14290618896484,72.70835876464844,66.76929473876953,20.091053009033203,-1.9814434051513672,-57.3696174621582,-61.5070915222168,-55.5802001953125,-34.28823471069336,120.42725372314453,187.1925048828125,151.60707092285156,134.78207397460938,116.34489440917969,101.2495346069336
44,96,61,38,40,54,55,111,64,77,103,44,52,44,95,88,13.754045486450195,32.8914794921875,64.74623107910156,80.4852066040039,79.27982330322266,71.87383270263672,20.826133728027344,-0.567636251449585,-53.6981201171875,-56.93215560913086,-50.684078216552734,-30.5369815826416,120.63104248046875,187.71096801757812,152.8800811767578,135.79476928710938,118.33892059326172,102.4961166381836
45,97,80,45,40,62,57,109,54,56,103,45,53,50,113,81,15.452085494995117,34.06748962402344,69.33407592773438,86.1192398071289,84.61383056640625,76.38270568847656,21.88237953186035,1.243499755859375,-49.74336242675781,-51.43814468383789,-46.03302001953125,-26.49214744567871,120.91789245605469,188.4018096923828,154.68321228027344,138.01515197753906,120.30874633789062,104.51256561279297
47,92,80,45,50,66,51,97,56,65,85,47,57,49,111,102,17.497915267944336,34.475563049316406,75.01915740966797,93.27952575683594,92.40736389160156,82.62152099609375,23.694744110107422,4.002048015594482,-42.79778289794922,-41.59450149536133,-37.48499298095703,-19.81792449951172,121.26512145996094,189.4986114501953,158.49281311035156,143.5038299560547,123.8039779663086,108.07178497314453
48,94,82,47,84,66,53,100,55,64,85,49,57,50,118,106,17.497915267944336,34.475563049316406,75.01915740966797,93.27952575683594,92.40736389160156,82.62152099609375,23.694744110107422,4.002048015594482,-42.79778289794922,-41.59450149536133,-37.48499298095703,-19.81792449951172,121.26512145996094,189.4986114501953,158.49281311035156,143.5038299560547,123.8039779663086,108.07178497314453
45,86,85,58,86,68,56,107,67,84,77,48,61,59,123,114,18.736608505249023,34.2275390625,78.91401672363281,97.49747467041016,100.07234954833984,88.018310546875,25.2613582611084,6.156964302062988,-35.10099792480469,-32.33119201660156,-25.914592742919922,-12.541451454162598,121.19610595703125,189.9823760986328,162.77964782714844,149.2012939453125,126.30391693115234,110.9652328491211
41,73,91,60,86,70,56,116,62,89,81,50,69,60,134,107,19.405471801757812,34.70956039428711,80.9540786743164,99.5270767211914,103.63345336914062,90.72101593017578,25.807641983032227,7.03536319732666,-31.503591537475586,-28.433631896972656,-19.33295249938965,-8.295448303222656,121.06798553466797,190.0028076171875,164.3194122314453,150.79136657714844,127.80489349365234,112.31098937988281
40,69,80,57,88,69,60,117,67,91,84,50,68,58,128,116,20.518016815185547,35.87128448486328,83.86869812011719,102.4554672241211,106.93687438964844,94.1469497680664,26.68522071838379,9.039816856384277,-27.249223709106445,-23.50897216796875,-13.0797758102417,-2.730562210083008,120.99989318847656,190.23533630371094,165.802734375,152.37889099121094,129.7869415283203,113.75736236572266
38,81,78,58,85,84,63,131,68,100,94,45,69,65,133,107,21.663442611694336,37.11560821533203,87.2938232421875,105.80343627929688,110.19978332519531,97.4787368774414,27.687833786010742,11.933311462402344,-21.097759246826172,-17.16588020324707,-6.0926194190979,3.8242597579956055,120.79065704345703,190.4724884033203,167.8076629638672,154.12347412109375,131.6486358642578,115.32659912109375
37,80,79,63,62,90,64,124,80,136,99,40,73,74,132,111,24.25247573852539,36.855735778808594,91.66415405273438,109.5276870727539,115.26197814941406,103.8799819946289,29.285860061645508,17.54102897644043,-7.53908109664917,1.0745302438735962,8.587303161621094,18.248260498046875,120.54974365234375,191.60797119140625,174.67601013183594,163.97384643554688,138.88485717773438,120.28028106689453
41,96,104,54,60,97,67,135,74,129,100,39,68,71,131,104,24.25247573852539,36.855735778808594,91.66415405273438,109.5276870727539,115.26197814941406,103.8799819946289,29.285860061645508,17.54102897644043,-7.53908109664917,1.0745302438735962,8.587303161621094,18.248260498046875,120.54974365234375,191.60797119140625,174.67601013183594,163.97384643554688,138.88485717773438,120.28028106689453
48,127,101,53,62,106,69,151,75,129,107,40,67,73,120,104,25.874242782592773,39.54938507080078,95.75052642822266,112.36408996582031,118.48575592041016,106.41020202636719,31.644590377807617,23.66915512084961,8.801719665527344,18.483774185180664,24.716522216796875,33.55448913574219,119.5626449584961,190.96730041503906,176.83538818359375,165.9261474609375,138.92987060546875,120.08446502685547
50,151,97,57,71,103,66,147,74,129,120,42,82,71,117,94,27.219388961791992,41.42885971069336,97.9831314086914,113.9838638305664,119.71855926513672,107.14234161376953,33.48320007324219,27.70783805847168,17.48581314086914,27.723325729370117,34.515785217285156,41.889686584472656,119.47798156738281,191.0004425048828,177.6403045654297,166.43768310546875,139.29847717285156,120.46427154541016
53,151,101,61,146,95,62,140,72,135,121,45,87,63,104,85,30.909765243530273,45.70365905761719,102.28096008300781,117.5118179321289,122.49613952636719,109.26547241210938,34.839515686035156,31.597152709960938,27.7373046875,38.56559371948242,45.66385269165039,51.64618682861328,119.89700317382812,191.4705810546875,178.63461303710938,167.06480407714844,139.9912567138672,121.15294647216797
52,152,121,60,248,88,57,141,60,108,113,48,83,52,95,70,32.118858337402344,46.8024787902832,103.06416320800781,117.9465103149414,122.62201690673828,109.1043701171875,34.96315002441406,32.6881217956543,32.640296936035156,43.82763671875,51.22480392456055,56.57388687133789,119.5264892578125,191.16952514648438,178.88719177246094,167.24000549316406,140.2475128173828,121.487548828125
52,150,111,65,256,78,48,124,54,111,117,53,97,53,88,63,33.04741287231445,47.71684265136719,103.64936828613281,118.24356079101562,122.62964630126953,109.05085754394531,35.108619689941406,32.81867980957031,35.146087646484375,46.72349166870117,54.43307876586914,59.51530456542969,118.98641204833984,190.6409912109375,178.6427764892578,167.0868682861328,140.40567016601562,121.52725219726562
47,140,116,68,262,66,38,85,55,107,109,52,93,49,85,52,33.5554313659668,48.09568786621094,103.77693176269531,118.13288116455078,122.408447265625,108.87147521972656,35.125205993652344,33.009090423583984,36.84716796875,48.727962493896484,56.499210357666016,61.26999282836914,118.85472869873047,190.54971313476562,178.83091735839844,167.38328552246094,140.88290405273438,121.8519058227539
45,118,114,65,260,68,36,80,49,101,93,49,85,50,68,47,34.965599060058594,49.21554946899414,104.10151672363281,118.5051040649414,123.09040832519531,109.45620727539062,35.621944427490234,33.17745590209961,39.57447814941406,51.370086669921875,58.992279052734375,63.67808151245117,118.44221496582031,190.2014617919922,179.18972778320312,167.8716583251953,141.26260375976562,122.30721282958984
42,116,115,60,225,56,36,67,45,77,82,49,77,59,70,42,35.21318435668945,49.76346206665039,104.161865234375,118.90824890136719,123.47364044189453,109.7643814086914,35.45782470703125,32.39232635498047,39.393550872802734,50.69895935058594,58.37125015258789,63.20742416381836,118.0499267578125,189.7327880859375,178.78028869628906,167.3229217529297,140.76699829101562,121.94633483886719
39,112,90,56,98,62,37,60,40,60,78,46,79,61,63,40,35.33375549316406,49.552276611328125,103.81524658203125,118.8646011352539,123.89570617675781,110.42054748535156,34.8765869140625,31.140283584594727,37.61979293823242,48.54678726196289,55.956024169921875,61.12126541137695,117.90790557861328,189.63296508789062,179.0810546875,167.7686767578125,141.16664123535156,122.23406219482422
39,100,74,46,75,65,39,58,40,53,98,42,63,55,58,43,34.8960075378418,49.62983703613281,103.87735748291016,119.06011962890625,124.4524154663086,111.13768768310547,34.10992431640625,29.501699447631836,33.99998474121094,44.416831970214844,51.336273193359375,57.197593688964844,117.7536849975586,189.33108520507812,178.35675048828125,167.17739868164062,140.32249450683594,121.3247299194336
38,80,62,40,41,64,38,48,35,50,108,41,65,55,59,42,35.0348014831543,50.84453201293945,104.7618408203125,120.55547332763672,125.89817810058594,112.6734390258789,32.49148941040039,27.36180877685547,28.87779998779297,37.84373092651367,44.12230682373047,50.828575134277344,118.07987976074219,189.3987579345703,177.5662841796875,165.90560913085938,138.9032745361328,119.9617919921875
38,81,62,36,35,64,40,43,34,52,113,40,56,54,55,42,34.290870666503906,52.822364807128906,105.95880889892578,121.97235870361328,126.62139129638672,113.08395385742188,30.38697624206543,23.901443481445312,21.756057739257812,29.253307342529297,35.11222457885742,42.910884857177734,117.51056671142578,188.06642150878906,174.0164337158203,161.54051208496094,134.25216674804688,115.93994903564453
36,79,56,35,35,64,43,41,33,48,125,43,55,44,46,46,32.50498962402344,54.16978073120117,104.90745544433594,121.21346282958984,125.06649780273438,111.99079132080078,26.650890350341797,15.481769561767578,4.496551990509033,8.815255165100098,14.197717666625977,24.947866439819336,117.25112915039062,186.32594299316406,168.81048583984375,155.2491912841797,127.66029357910156,110.44178771972656
34,90,72,32,36,55,39,38,32,48,129,49,50,44,52,45,31.43978500366211,54.03293991088867,103.4374771118164,119.49545288085938,123.1692886352539,110.45189666748047,25.274791717529297,12.81385612487793,-1.6289238929748535,0.3997024595737457,6.176192283630371,18.18463134765625,116.9661636352539,185.52699279785156,166.79664611816406,153.02061462402344,125.01640319824219,108.1502914428711
33,102,90,32,31,53,36,34,32,39,121,51,48,49,62,38,30.46458625793457,53.49319076538086,101.50650787353516,117.12283325195312,120.84791564941406,108.72647857666016,23.608917236328125,9.243505477905273,-8.1810941696167,-8.440648078918457,-2.0826408863067627,11.575008392333984,116.49836730957031,184.5459747314453,164.79139709472656,150.90234375,122.50926971435547,106.05653381347656
33,108,115,30,32,51,39,33,32,44,113,52,51,51,58,38,29.85533332824707,52.50618362426758,99.179931640625,114.35224914550781,118.34901428222656,107.2393569946289,21.604454040527344,6.321331024169922,-14.207972526550293,-16.5128116607666,-10.536408424377441,4.625995635986328,116.56102752685547,184.54148864746094,164.5421142578125,150.70120239257812,121.8396987915039,105.31956481933594
34,105,122,31,33,46,36,35,33,44,115,50,51,52,59,39,29.333599090576172,51.48277282714844,96.81173706054688,111.46863555908203,115.59916687011719,105.69570922851562,19.335187911987305,2.5954489707946777,-20.508258819580078,-24.481531143188477,-18.87822914123535,-2.033295154571533,116.3946533203125,184.20297241210938,163.84445190429688,149.978759765625,120.80070495605469,104.24077606201172
36,100,125,31,35,43,33,35,34,43,113,52,53,63,58,33,28.805105209350586,50.7935791015625,94.75065612792969,108.5863265991211,112.7603988647461,104.02772521972656,17.519393920898438,-0.2555186450481415,-25.625797271728516,-31.58867645263672,-26.020122528076172,-7.637606620788574,116.43146514892578,184.03399658203125,163.189453125,149.16329956054688,119.68009948730469,103.11002349853516
37,86,116,32,36,41,32,33,36,44,139,50,55,62,51,38,27.97992515563965,50.354251861572266,93.02549743652344,105.34310913085938,109.91010284423828,102.09135437011719,16.276142120361328,-2.065622329711914,-29.383548736572266,-37.98165512084961,-31.3592529296875,-11.757468223571777,116.57858276367188,183.9080810546875,162.33810424804688,148.31967163085938,118.41998291015625,101.86255645751953
36,72,101,32,37,41,33,35,38,44,138,47,64,59,39,39,25.79930877685547,47.32859802246094,86.534912109375,96.80387878417969,101.83488464355469,96.86005401611328,12.550484657287598,-6.716629981994629,-40.21261215209961,-50.613338470458984,-44.67401123046875,-22.880901336669922,117.02413177490234,184.38134765625,161.89141845703125,148.94515991210938,117.86514282226562,100.88749694824219
37,67,74,35,41,44,35,36,42,40,141,47,64,58,39,36,24.5389347076416,45.714698791503906,82.72348022460938,91.91497039794922,97.17324829101562,93.65709686279297,10.947175025939941,-9.42512321472168,-45.8363151550293,-56.90938949584961,-50.80989456176758,-28.095788955688477,117.0774917602539,184.2263641357422,160.89768981933594,148.16676330566406,116.8014907836914,99.74690246582031
38,61,60,35,42,45,34,35,43,42,142,49,67,58,34,33,23.223424911499023,44.39533233642578,78.76773834228516,86.71183013916016,92.09907531738281,89.95339965820312,9.390289306640625,-12.077018737792969,-51.30678176879883,-63.06736373901367,-56.715335845947266,-33.291133880615234,117.166748046875,183.9798126220703,159.61782836914062,147.0151824951172,115.4836654663086,98.38213348388672
37,68,65,36,43,48,32,35,45,50,184,57,69,60,39,35,21.705883026123047,42.861366271972656,74.4686279296875,80.89043426513672,86.72743225097656,85.8776626586914,8.25498104095459,-14.133769035339355,-56.01602554321289,-68.68548583984375,-61.79267883300781,-37.89401626586914,117.52064514160156,184.04074096679688,158.736328125,146.23130798339844,114.62001037597656,97.3652114868164
37,72,72,34,43,54,33,41,43,50,169,57,70,65,41,28,17.992984771728516,37.838661193847656,62.654361724853516,67.49626159667969,73.53401184082031,75.87815856933594,6.140248775482178,-18.289962768554688,-65.80351257324219,-78.31187438964844,-71.90462493896484,-47.44217300415039,117.87968444824219,184.09371948242188,157.17431640625,145.41644287109375,113.5254898071289,95.82965850830078
38,72,117,41,42,54,33,43,44,59,186,86,65,65,39,34,17.992984771728516,37.838661193847656,62.654361724853516,67.49626159667969,73.53401184082031,75.87815856933594,6.140248775482178,-18.289962768554688,-65.80351257324219,-78.31187438964844,-71.90462493896484,-47.44217300415039,117.87968444824219,184.09371948242188,157.17431640625,145.41644287109375,113.5254898071289,95.82965850830078
38,69,160,39,37,46,30,48,42,60,206,92,62,69,47,36,12.76186752319336,30.74928855895996,47.661041259765625,51.005104064941406,57.4003791809082,62.64911651611328,4.102055072784424,-22.335378646850586,-74.44590759277344,-86.7889175415039,-80.8487548828125,-56.779964447021484,118.019287109375,184.0017852783203,155.7078857421875,144.5549774169922,112.67955017089844,94.1393051147461
36,65,165,41,39,46,30,51,47,69,225,115,69,68,51,37,12.76186752319336,30.74928855895996,47.661041259765625,51.005104064941406,57.4003791809082,62.64911651611328,4.102055072784424,-22.335378646850586,-74.44590759277344,-86.7889175415039,-80.8487548828125,-56.779964447021484,118.019287109375,184.0017852783203,155.7078857421875,144.5549774169922,112.67955017089844,94.1393051147461
36,64,166,49,35,43,31,52,48,71,213,119,67,60,48,39,5.3051252365112305,21.540462493896484,28.990901947021484,30.854238510131836,37.67600631713867,45.52584457397461,1.9697264432907104,-25.62834930419922,-81.53572082519531,-93.68306732177734,-88.5398178100586,-65.62812042236328,117.70185089111328,183.67205810546875,154.63577270507812,144.36700439453125,112.57069396972656,92.87198638916016
35,74,166,51,36,35,31,48,59,81,273,135,71,65,48,43,0.6185838580131531,16.33559226989746,18.952953338623047,20.69590187072754,26.84185028076172,35.61616516113281,1.5596857070922852,-28.765071868896484,-84.8984603881836,-96.32296752929688,-90.7535171508789,-67.84752655029297,116.64356994628906,181.53759765625,150.23757934570312,140.10304260253906,108.57766723632812,89.19833374023438
38,75,152,47,36,34,31,48,59,83,291,141,75,65,49,40,-3.5512821674346924,11.339935302734375,8.531839370727539,12.043778419494629,17.456981658935547,24.02888298034668,1.485336184501648,-31.655275344848633,-87.96089935302734,-98.03408813476562,-91.86849212646484,-69.49982452392578,115.4191665649414,179.12423706054688,144.83432006835938,135.342529296875,104.15272521972656,86.3610610961914
38,93,110,47,39,35,31,45,62,88,347,149,86,71,43,40,-7.752058982849121,6.52095365524292,-1.7340739965438843,2.422259569168091,6.956607341766357,12.41894817352295,2.1843035221099854,-33.061790466308594,-89.03829956054688,-98.6216049194336,-92.06675720214844,-70.10839080810547,114.5254898071289,177.2383270263672,141.17031860351562,131.7364959716797,101.6590576171875,84.42656707763672
40,120,106,46,40,48,30,44,60,86,360,158,84,79,46,43,-14.516083717346191,-2.634629011154175,-19.799549102783203,-17.381732940673828,-14.07094955444336,-5.824054718017578,8.637207984924316,-29.58722686767578,-83.64849853515625,-93.5914077758789,-86.49154663085938,-64.86466217041016,112.7884521484375,174.25091552734375,136.71897888183594,125.853271484375,98.61795806884766,81.38198852539062
42,118,113,37,39,56,31,43,59,89,372,169,92,87,56,43,-14.516083717346191,-2.634629011154175,-19.799549102783203,-17.381732940673828,-14.07094955444336,-5.824054718017578,8.637207984924316,-29.58722686767578,-83.64849853515625,-93.5914077758789,-86.49154663085938,-64.86466217041016,112.7884521484375,174.25091552734375,136.71897888183594,125.853271484375,98.61795806884766,81.38198852539062
51,117,119,44,42,59,33,51,66,124,373,178,90,100,67,46,-19.339805603027344,-10.922821044921875,-33.35871124267578,-33.13824462890625,-30.24884033203125,-18.367586135864258,13.52701473236084,-27.35468101501465,-78.68531036376953,-88.71683502197266,-80.65629577636719,-59.47004318237305,111.89469909667969,172.21646118164062,132.9042510986328,119.61568450927734,96.14817810058594,78.69773864746094
54,133,122,58,48,60,35,49,67,197,365,197,101,110,70,56,-21.531875610351562,-14.644957542419434,-38.85776901245117,-40.80187225341797,-36.43400192260742,-23.58585548400879,15.352530479431152,-25.870431900024414,-76.40579986572266,-86.43171691894531,-78.29940795898438,-57.524810791015625,111.5171890258789,171.8046417236328,132.2519073486328,117.3153076171875,96.0248031616211,78.19560241699219
70,144,141,63,48,61,35,52,74,212,346,240,103,110,72,62,-22.105764389038086,-16.862667083740234,-43.212520599365234,-46.848941802978516,-41.021453857421875,-27.856678009033203,16.263460159301758,-25.905651092529297,-74.9963150024414,-84.69579315185547,-76.5015869140625,-55.951637268066406,110.93604278564453,170.73631286621094,130.51226806640625,114.1590805053711,94.5281982421875,76.82156372070312
70,133,185,74,56,52,38,54,94,223,409,296,113,130,79,63,-23.96788215637207,-19.029253005981445,-47.75982666015625,-53.15182876586914,-46.54065704345703,-32.9796257019043,17.75568199157715,-25.338088989257812,-73.06430053710938,-82.27039337158203,-74.06121826171875,-53.70820617675781,110.82928466796875,170.07505798339844,129.5142822265625,111.78266906738281,93.66340637207031,75.91159057617188
72,183,199,82,59,47,42,53,108,260,433,311,116,138,82,68,-25.70277214050293,-23.99197006225586,-58.27130126953125,-63.48454666137695,-56.6712532043457,-42.38362503051758,20.494760513305664,-23.93916130065918,-68.15737915039062,-76.72441864013672,-68.62785339355469,-48.86947250366211,109.45470428466797,167.81007385253906,125.96171569824219,108.34888458251953,90.90218353271484,73.73749542236328
78,195,222,92,59,45,41,49,118,251,451,353,134,136,85,70,-27.419570922851562,-27.144725799560547,-64.92677307128906,-69.05496978759766,-62.252784729003906,-48.01218032836914,20.694259643554688,-23.888784408569336,-66.28607940673828,-74.95176696777344,-67.02361297607422,-47.52964401245117,108.40313720703125,166.4626922607422,124.13760375976562,107.36282348632812,89.89421844482422,73.0711441040039
80,213,228,93,57,51,43,52,126,231,480,374,136,143,89,66,-29.73059844970703,-30.64928436279297,-70.96659851074219,-75.41815948486328,-68.29483795166016,-54.06266784667969,20.86717987060547,-24.275644302368164,-64.6483383178711,-72.97704315185547,-65.17605590820312,-45.83264923095703,107.57757568359375,164.86508178710938,122.57312774658203,105.8667984008789,88.60176086425781,72.07252502441406
81,221,235,99,55,50,44,50,129,238,477,379,138,156,97,62,-32.05874252319336,-34.43952560424805,-76.15361022949219,-81.21190643310547,-73.68315887451172,-59.24552917480469,21.21147346496582,-24.3742618560791,-63.05970764160156,-70.93749237060547,-63.25493240356445,-44.06654357910156,106.93869018554688,163.07913208007812,121.22586059570312,104.4250259399414,87.34523010253906,71.05899810791016
100,239,221,100,50,51,44,55,120,240,434,331,154,149,94,65,-34.67826461791992,-38.43608856201172,-81.19706726074219,-86.74919891357422,-78.98834228515625,-64.31332397460938,21.347217559814453,-24.609025955200195,-61.78123092651367,-69.22367858886719,-61.586326599121094,-42.53651428222656,106.4542007446289,161.26092529296875,120.0417251586914,103.18040466308594,86.2005386352539,70.1822738647461
103,235,217,99,50,52,44,58,112,208,424,335,151,137,87,63,-37.02350997924805,-42.11631393432617,-85.76141357421875,-91.89107513427734,-83.92801666259766,-68.993896484375,21.431896209716797,-24.566917419433594,-60.49160385131836,-67.52252960205078,-60.01384735107422,-41.18368911743164,105.68415069580078,159.25938415527344,119.02831268310547,102.14822387695312,85.19495391845703,69.38219451904297
99,236,198,95,46,49,42,57,100,210,386,309,142,130,77,58,-38.90361404418945,-45.11920166015625,-89.55647277832031,-95.99544525146484,-87.93771362304688,-72.78903198242188,21.777374267578125,-24.18128776550293,-59.067665100097656,-65.7900619506836,-58.35549545288086,-39.69819259643555,105.22725677490234,157.5576934814453,118.3186264038086,101.42743682861328,84.49397277832031,68.90730285644531
98,227,191,97,47,43,41,54,103,197,387,313,147,117,72,58,-42.72190856933594,-50.661956787109375,-96.16011810302734,-102.89993286132812,-94.61890411376953,-79.39913940429688,22.730989456176758,-23.249704360961914,-56.55351638793945,-62.7390022277832,-55.34264373779297,-36.69295120239258,104.82642364501953,154.5028076171875,116.98846435546875,100.1112289428711,83.14640045166016,68.14692687988281
98,224,190,92,52,45,41,59,98,187,368,291,142,99,62,57,-44.6541862487793,-53.34804153442383,-99.22671508789062,-106.23651885986328,-97.99295806884766,-82.63957214355469,23.001995086669922,-23.018280029296875,-55.61335372924805,-61.461299896240234,-53.978755950927734,-35.37920379638672,104.91209411621094,153.4130859375,116.67108154296875,99.75041961669922,82.83153533935547,68.01950073242188
84,223,180,88,46,42,38,52,95,182,379,316,119,85,55,51,-46.39522171020508,-55.8831787109375,-101.90123748779297,-109.11935424804688,-100.84651947021484,-85.38517761230469,23.279552459716797,-22.589826583862305,-54.777095794677734,-60.34262466430664,-52.81814193725586,-34.24856948852539,104.9123306274414,152.41090393066406,116.34099578857422,99.37639617919922,82.53857421875,67.82612609863281
82,207,170,90,45,35,35,49,94,197,409,309,125,88,59,54,-47.909358978271484,-58.09011459350586,-104.47298431396484,-111.8514404296875,-103.28044891357422,-87.99900817871094,23.532184600830078,-22.22867202758789,-53.862754821777344,-59.1788215637207,-51.79769515991211,-33.10014724731445,104.91783905029297,151.35826110839844,116.15914916992188,99.1901626586914,82.54643249511719,67.77423095703125
79,194,191,88,49,36,36,49,90,192,426,298,122,93,63,53,-50.136775970458984,-60.7962760925293,-107.88301086425781,-115.56402587890625,-107.06765747070312,-91.7386245727539,23.383224487304688,-21.884708404541016,-53.0781135559082,-58.230045318603516,-50.9930534362793,-32.500946044921875,105.3819808959961,151.1683349609375,117.49400329589844,100.51958465576172,83.89292907714844,68.94802856445312
78,212,193,104,47,37,35,51,78,169,387,261,107,97,69,48,-52.01927185058594,-63.21308517456055,-110.72620391845703,-118.53092956542969,-109.82054138183594,-94.45095825195312,22.99732208251953,-21.59999656677246,-52.646339416503906,-57.805450439453125,-50.91354751586914,-32.654701232910156,105.47258758544922,150.8982391357422,118.56993103027344,101.55207824707031,84.90023040771484,69.89398193359375
66,230,192,115,45,32,37,46,75,152,385,249,118,99,75,54,-55.08563995361328,-66.84376525878906,-114.9177017211914,-122.80148315429688,-113.47945404052734,-98.65016174316406,22.90715789794922,-21.2698974609375,-51.8817024230957,-56.91488265991211,-50.51174545288086,-32.01858139038086,105.4444808959961,149.92115783691406,119.15669250488281,101.93154907226562,85.2896499633789,70.46890258789062
68,280,207,129,66,48,40,61,72,139,378,211,121,99,79,61,-55.08563995361328,-66.84376525878906,-114.9177017211914,-122.80148315429688,-113.47945404052734,-98.65016174316406,22.90715789794922,-21.2698974609375,-51.8817024230957,-56.91488265991211,-50.51174545288086,-32.01858139038086,105.4444808959961,149.92115783691406,119.15669250488281,101.93154907226562,85.2896499633789,70.46890258789062
83,395,221,151,86,67,61,111,67,96,322,182,112,95,77,55,-57.1475830078125,-69.6009750366211,-117.835693359375,-125.59638977050781,-116.13640594482422,-101.27665710449219,22.62969398498535,-21.407135009765625,-51.622169494628906,-56.45527648925781,-50.10015106201172,-31.54517364501953,105.45345306396484,148.5603485107422,118.71098327636719,100.94031524658203,84.82967376708984,70.36116027832031
93,504,214,187,128,89,83,156,62,81,283,151,107,87,73,67,-57.74834442138672,-70.58047485351562,-118.68109130859375,-126.35432434082031,-116.71998596191406,-101.83512115478516,22.394025802612305,-21.499744415283203,-51.72834777832031,-56.52177429199219,-50.2367057800293,-31.654542922973633,105.42703247070312,148.06912231445312,118.39945983886719,100.51074981689453,84.50132751464844,70.24442291259766
111,625,233,229,169,112,108,212,54,73,277,123,103,78,70,68,-58.14319610595703,-71.15965270996094,-119.11670684814453,-126.66512298583984,-117.02215576171875,-102.10315704345703,22.219249725341797,-21.60563087463379,-51.921478271484375,-56.71053695678711,-50.40165710449219,-31.80242919921875,105.42564392089844,147.6620635986328,118.14897918701172,100.10734558105469,84.28836822509766,70.1805648803711
131,700,239,278,208,134,129,258,50,71,269,105,87,85,123,74,-58.325984954833984,-71.41879272460938,-119.25968170166016,-126.74178314208984,-117.07624053955078,-102.16155242919922,22.01871681213379,-21.7207088470459,-52.181278228759766,-56.98237609863281,-50.66290283203125,-32.04154968261719,105.48072052001953,147.41323852539062,118.06744384765625,99.99744415283203,84.24195861816406,70.23284912109375
133,692,225,282,214,135,138,271,47,64,214,110,74,84,130,69,-57.94910430908203,-70.63133239746094,-117.81504821777344,-124.94408416748047,-115.28870391845703,-100.69117736816406,21.39670753479004,-22.438318252563477,-53.765281677246094,-58.754966735839844,-52.243873596191406,-33.29792022705078,105.97245025634766,147.27040100097656,117.99205780029297,99.94477844238281,84.28026580810547,70.48338317871094
127,640,206,273,211,137,132,259,41,61,177,107,71,88,149,82,-57.94910430908203,-70.63133239746094,-117.81504821777344,-124.94408416748047,-115.28870391845703,-100.69117736816406,21.39670753479004,-22.438318252563477,-53.765281677246094,-58.754966735839844,-52.243873596191406,-33.29792022705078,105.97245025634766,147.27040100097656,117.99205780029297,99.94477844238281,84.28026580810547,70.48338317871094
120,559,184,248,189,130,120,235,41,64,166,111,69,99,180,76,-54.900482177734375,-65.4742202758789,-109.90843200683594,-115.92422485351562,-106.35044860839844,-92.92345428466797,18.89669418334961,-25.407228469848633,-60.10307693481445,-65.75932312011719,-58.5838508605957,-38.586246490478516,107.4513168334961,147.63140869140625,117.94127655029297,99.98509216308594,84.51448059082031,71.18402862548828
104,414,157,203,156,116,100,190,45,62,157,105,65,103,193,76,-51.953121185302734,-60.89687728881836,-103.18761444091797,-108.27325439453125,-98.9141845703125,-86.34895324707031,17.15578269958496,-27.403148651123047,-64.44902038574219,-70.60195922851562,-62.92875289916992,-42.271873474121094,108.63246154785156,148.36959838867188,118.28362274169922,100.3956527709961,85.05687713623047,71.94818878173828
72,244,117,117,97,101,72,121,46,54,136,93,60,96,174,63,-48.777767181396484,-55.58843994140625,-95.60810852050781,-99.88978576660156,-90.82884979248047,-79.35049438476562,15.488030433654785,-29.024368286132812,-68.76598358154297,-75.36734771728516,-67.20197296142578,-45.88501739501953,109.78409576416016,148.85496520996094,119.00396728515625,101.23654174804688,85.97145080566406,72.98607635498047
59,191,90,82,69,97,51,82,42,56,126,79,55,94,189,66,-45.06601333618164,-49.56796646118164,-87.58582305908203,-91.57567596435547,-82.87210845947266,-72.43184661865234,13.920405387878418,-30.654481887817383,-72.61199951171875,-79.40406036376953,-70.74907684326172,-48.86909103393555,111.26107025146484,149.7681121826172,120.2112808227539,102.69953155517578,87.28813934326172,74.40831756591797
49,146,90,68,54,86,46,65,44,58,142,74,52,101,186,50,-40.90111541748047,-42.541133880615234,-77.81377410888672,-80.59033203125,-73.29253387451172,-64.25318145751953,12.529119491577148,-31.74686050415039,-76.49329376220703,-83.88776397705078,-74.46144104003906,-51.991661071777344,112.49984741210938,150.83926391601562,121.469970703125,104.63444519042969,88.84911346435547,75.90180969238281
43,137,89,69,52,81,49,60,42,51,123,45,52,86,161,53,-36.253028869628906,-36.923561096191406,-68.538330078125,-69.42706298828125,-62.64023208618164,-54.2432975769043,10.544171333312988,-32.22512435913086,-80.05205535888672,-88.41259765625,-78.98463439941406,-56.51958084106445,110.97763061523438,150.49014282226562,121.55779266357422,105.4996337890625,89.45172882080078,75.95883178710938
41,96,59,51,42,79,45,59,37,51,107,42,48,96,177,63,-28.98044776916504,-25.385787963867188,-52.43055725097656,-52.192955017089844,-46.24654769897461,-40.09516143798828,7.763175010681152,-33.976539611816406,-85.2872085571289,-94.08399200439453,-84.3635482788086,-61.47278594970703,111.78960418701172,151.6424560546875,123.89163208007812,108.03005981445312,92.89115142822266,78.18382263183594
40,78,51,48,42,78,44,57,34,69,107,42,60,99,180,71,-26.237937927246094,-21.274715423583984,-45.59730911254883,-44.686161041259766,-38.86302185058594,-33.55720138549805,7.651765823364258,-33.142398834228516,-86.15372467041016,-95.17369842529297,-85.49730682373047,-62.61919403076172,112.69345092773438,153.11476135253906,126.0414047241211,109.82626342773438,95.65806579589844,80.21524810791016
37,63,55,43,45,95,56,87,38,70,104,41,61,98,171,79,-24.51722526550293,-19.1572322845459,-39.62893295288086,-37.102901458740234,-31.60685157775879,-26.79871940612793,7.979937553405762,-31.47187042236328,-86.35369873046875,-95.72245025634766,-86.08990478515625,-63.36562728881836,113.20741271972656,154.6903533935547,128.1532745361328,112.30244445800781,98.45246124267578,82.3427734375
36,57,54,39,44,102,60,92,52,90,81,43,66,105,195,98,-21.91126823425293,-16.435251235961914,-31.905921936035156,-27.26976203918457,-22.25177764892578,-18.043285369873047,8.881021499633789,-29.030113220214844,-85.81413269042969,-95.37903594970703,-85.80404663085938,-63.26807403564453,113.75569915771484,156.47584533691406,130.54837036132812,115.28597259521484,101.58122253417969,84.83451080322266
36,58,55,33,42,106,59,96,53,91,90,45,66,110,219,100,-18.390724182128906,-13.151632308959961,-22.803808212280273,-16.05967903137207,-11.514457702636719,-7.64525032043457,9.304586410522461,-27.24533462524414,-85.52107238769531,-94.97855377197266,-85.43287658691406,-62.9798469543457,114.65219116210938,158.4394073486328,132.99351501464844,118.48348236083984,104.81558990478516,87.66291809082031
33,50,55,37,38,110,61,101,60,94,88,46,67,108,214,104,-14.400811195373535,-8.605073928833008,-12.749896049499512,-4.350003242492676,-0.41779598593711853,2.648786783218384,9.659788131713867,-25.72902488708496,-84.95480346679688,-94.04576110839844,-84.53028869628906,-62.10846710205078,115.51923370361328,160.06959533691406,135.31947326660156,121.47985076904297,107.68669128417969,90.13297271728516
37,50,54,39,39,106,62,105,68,84,96,42,76,106,297,111,-7.439375877380371,0.4252442419528961,4.319797039031982,14.75855541229248,17.48784828186035,18.35886001586914,9.695181846618652,-24.3551082611084,-83.91246795654297,-91.94115447998047,-82.44184112548828,-60.094322204589844,117.05709075927734,162.14634704589844,138.1343994140625,125.0510482788086,110.9388427734375,92.73517608642578
35,47,49,43,39,93,71,103,71,82,102,38,82,108,361,130,-4.0114264488220215,4.983145713806152,13.475200653076172,24.896631240844727,27.1793270111084,26.717506408691406,8.826752662658691,-24.798662185668945,-83.87455749511719,-91.07516479492188,-81.42858123779297,-59.120479583740234,117.93673706054688,163.0577850341797,139.0288543701172,126.27002716064453,112.20768737792969,93.80951690673828
38,46,46,44,45,89,95,126,67,66,107,39,84,103,353,123,-0.18626591563224792,10.6975736618042,24.22909927368164,36.530311584472656,38.13201141357422,36.02073669433594,8.945704460144043,-23.699804306030273,-82.01388549804688,-88.26451110839844,-78.59976959228516,-56.54505157470703,118.64326477050781,163.99880981445312,140.4097137451172,127.92928314208984,113.80799102783203,95.20861053466797
42,48,42,43,48,86,102,128,70,85,108,40,100,116,403,137,3.7186152935028076,16.820079803466797,35.71217346191406,48.84856414794922,49.65778732299805,45.79668045043945,9.355552673339844,-22.386972427368164,-79.21208190917969,-84.21189880371094,-74.4654541015625,-52.65073776245117,119.24456787109375,164.59329223632812,141.04212951660156,128.7367401123047,114.68592071533203,96.08788299560547
43,48,44,38,49,85,104,130,74,110,116,44,108,111,411,141,7.732463836669922,23.249515533447266,47.00045394897461,60.738800048828125,60.680416107177734,55.05839157104492,10.081775665283203,-20.799352645874023,-75.64114379882812,-79.29883575439453,-69.49055480957031,-47.93186569213867,120.27597045898438,165.40061950683594,141.5367431640625,129.25668334960938,115.30744934082031,96.90127563476562
41,50,56,40,54,89,106,132,78,113,112,46,107,107,387,134,11.875225067138672,29.907381057739258,57.847129821777344,70.76525115966797,69.82123565673828,62.59058380126953,11.581915855407715,-18.289928436279297,-70.54246520996094,-74.1210708618164,-64.38458251953125,-43.20318603515625,120.83412170410156,165.6505584716797,142.1143798828125,128.87351989746094,115.02057647705078,96.7923355102539
42,53,58,38,53,84,99,125,81,122,114,47,117,106,443,142,15.71907901763916,36.496307373046875,67.34793853759766,79.37757110595703,77.50408172607422,68.69235229492188,12.708352088928223,-16.170133590698242,-66.06771087646484,-69.6734619140625,-60.030921936035156,-39.23377990722656,120.94520568847656,165.17242431640625,141.45941162109375,127.10792541503906,113.43989562988281,95.56289672851562
43,54,57,41,47,80,83,121,78,145,113,46,123,107,472,136,22.27023696899414,47.71356964111328,82.88313293457031,94.17691802978516,90.66915130615234,79.14213562011719,16.733386993408203,-9.140968322753906,-55.56204605102539,-58.71689987182617,-49.66075897216797,-30.02639389038086,121.27267456054688,164.82969665527344,140.98098754882812,125.3148422241211,111.76063537597656,94.32492065429688
41,54,58,43,45,83,82,121,76,145,115,45,119,91,464,121,25.14702796936035,52.15448760986328,90.11749267578125,101.5948715209961,97.51596069335938,84.76963806152344,19.799882888793945,-4.474154949188232,-48.6213264465332,-51.06132507324219,-42.26993179321289,-23.376474380493164,121.9260025024414,165.423095703125,141.63150024414062,125.7171401977539,112.1830825805664,94.92767333984375
42,54,64,45,44,80,80,120,81,148,112,42,121,90,512,163,27.806133270263672,56.71440505981445,97.71379852294922,109.30087280273438,104.4984359741211,90.30006408691406,22.851821899414062,0.9628046751022339,-40.45425033569336,-42.13542175292969,-33.8409309387207,-16.07940673828125,122.78187561035156,166.2859344482422,142.75108337402344,126.4328842163086,112.9678726196289,95.7863540649414
44,52,54,43,45,79,81,156,95,158,120,44,117,94,527,174,30.70789337158203,60.714569091796875,104.53299713134766,116.37591552734375,111.05982208251953,95.77294921875,25.533964157104492,5.628401756286621,-32.93544006347656,-33.77577209472656,-25.96604347229004,-9.280588150024414,123.35244750976562,167.03065490722656,144.00547790527344,126.7902603149414,113.92999267578125,96.79118347167969
44,48,52,42,43,81,80,163,109,155,115,42,105,90,444,154,33.317684173583984,64.0975112915039,110.12975311279297,122.21697235107422,116.49937438964844,100.38410949707031,27.991018295288086,9.576964378356934,-26.36717414855957,-26.3035945892334,-18.888029098510742,-3.0648930072784424,123.5571060180664,167.3191680908203,144.61778259277344,126.47636413574219,114.29307556152344,97.28179168701172
45,45,54,39,47,98,83,169,114,144,107,41,97,79,410,160,35.675315856933594,66.95014190673828,115.30047607421875,127.62379455566406,121.46006774902344,104.7510757446289,30.37668800354004,14.206925392150879,-18.87566375732422,-18.345455169677734,-11.925304412841797,2.9436726570129395,123.97000122070312,168.23463439941406,146.98963928222656,127.38186645507812,115.81517791748047,98.60606384277344
49,44,58,36,47,100,85,183,119,155,102,41,88,77,363,162,39.088523864746094,71.12916564941406,123.84635162353516,136.63490295410156,130.1663818359375,112.0785140991211,35.37163162231445,23.253673553466797,-2.5799484252929688,-0.42963355779647827,5.545533657073975,17.691970825195312,123.96311950683594,168.9141845703125,150.01454162597656,127.62796020507812,116.84597778320312,99.16033172607422
51,49,86,39,48,94,85,183,114,163,99,40,81,78,289,114,40.507896423339844,72.37555694580078,127.06893920898438,140.2179718017578,133.88519287109375,115.27497100830078,38.2086296081543,28.800537109375,6.914109706878662,9.495438575744629,15.934940338134766,25.910432815551758,123.85150909423828,169.54322814941406,152.68243408203125,129.4471435546875,117.77196502685547,100.1023178100586
54,47,86,35,40,94,86,157,102,168,91,39,80,75,234,118,43.02098083496094,74.2902603149414,131.4310760498047,145.07798767089844,138.65213012695312,119.55093383789062,39.279151916503906,33.3853874206543,18.27798080444336,21.825923919677734,28.161100387573242,35.755069732666016,123.37271118164062,170.0326385498047,155.73146057128906,131.8581085205078,119.05376434326172,101.45166778564453
57,46,87,35,40,95,84,157,89,170,102,42,104,79,280,135,45.12593078613281,75.60365295410156,133.94114685058594,147.972412109375,141.4912872314453,122.3011703491211,41.22996520996094,38.04974365234375,27.397865295410156,31.667797088623047,38.04574966430664,43.754974365234375,123.5166244506836,170.9361572265625,158.65536499023438,134.40565490722656,120.90262603759766,103.14261627197266
55,48,87,35,40,97,91,144,88,165,107,42,118,88,326,138,46.15462875366211,75.83244323730469,134.8271484375,149.1080780029297,142.62295532226562,123.52271270751953,42.590606689453125,39.8565559387207,32.71672439575195,38.62653350830078,45.44700622558594,49.9874382019043,123.45712280273438,171.388671875,160.3246612548828,136.11233520507812,122.15762329101562,104.50473022460938
54,47,98,38,39,92,84,126,90,164,108,43,119,98,334,139,54.28034210205078,78.01446533203125,138.41806030273438,154.48060607910156,149.48988342285156,131.9332275390625,43.701560974121094,43.63493347167969,44.597145080566406,53.058353424072266,58.138694763183594,60.611331939697266,123.81097412109375,174.79519653320312,171.17001342773438,148.71768188476562,133.03187561035156,113.9577865600586
57,50,85,36,40,96,84,126,86,137,128,46,118,101,330,142,56.687461853027344,75.97520446777344,135.96466064453125,151.84991455078125,149.1246795654297,133.05706787109375,45.70963668823242,47.45490264892578,54.15046691894531,66.70880126953125,69.41455841064453,70.46158599853516,123.78263854980469,176.26588439941406,178.29627990722656,157.8204803466797,140.48997497558594,120.12861633300781
53,49,104,42,46,103,78,131,82,152,123,44,117,96,313,131,56.32466125488281,74.6621322631836,134.25296020507812,149.51829528808594,147.78054809570312,132.0977325439453,46.615028381347656,49.43108367919922,56.69735336303711,71.05531311035156,72.8057632446289,73.95936584472656,123.66162872314453,176.14990234375,179.83599853515625,160.0855712890625,142.18350219726562,121.31074523925781
59,60,105,45,49,108,79,126,74,168,111,47,95,101,250,108,56.00712203979492,73.50820922851562,132.67022705078125,147.3685302734375,146.3621826171875,130.970703125,47.797584533691406,51.16748809814453,59.04570007324219,74.945068359375,76.4944076538086,77.92377471923828,123.581298828125,176.09161376953125,181.2725372314453,162.29507446289062,143.92269897460938,122.68607330322266
58,63,109,47,48,91,57,115,70,166,105,48,74,90,188,97,55.310020446777344,71.85974884033203,130.64813232421875,145.16629028320312,144.63185119628906,129.63189697265625,48.569549560546875,53.00972366333008,61.05720138549805,77.68659973144531,79.32032775878906,80.89252471923828,123.7258529663086,176.3347625732422,182.90440368652344,164.36572265625,145.71141052246094,123.9515609741211
57,62,97,46,49,99,59,113,56,150,111,49,66,74,162,87,54.82037353515625,70.89398956298828,129.4168701171875,143.6565399169922,143.4075164794922,128.58084106445312,48.99433517456055,54.44418716430664,62.25301742553711,79.4888916015625,81.32122039794922,83.05487823486328,123.63462829589844,176.14910888671875,183.59414672851562,165.39016723632812,146.4445037841797,124.41873168945312
57,58,80,44,48,96,55,105,55,151,88,48,63,65,127,71,54.36427688598633,69.81824493408203,128.11146545410156,142.23133850097656,142.38743591308594,127.83979797363281,49.00008010864258,55.19539260864258,62.71666717529297,80.3680191040039,82.29539489746094,84.14047241210938,123.9142074584961,176.4573211669922,184.82696533203125,166.92495727539062,147.63258361816406,125.29298400878906
57,59,58,46,42,82,53,88,45,112,86,52,53,66,112,53,53.18345260620117,67.67899322509766,125.71834564208984,139.93719482421875,140.29588317871094,126.72946166992188,48.48747253417969,55.89333724975586,60.73323059082031,79.13876342773438,82.28102111816406,84.71868896484375,124.27300262451172,176.6132354736328,186.9526824951172,169.80352783203125,150.3070068359375,126.82505798339844
48,50,56,44,36,70,48,62,42,75,90,49,49,51,103,49,52.3478889465332,66.88336944580078,124.91631317138672,139.1341094970703,139.79920959472656,126.50700378417969,47.25362777709961,54.02101135253906,57.097999572753906,76.00293731689453,79.44283294677734,82.89838409423828,124.31302642822266,176.6758575439453,187.38613891601562,170.7908172607422,151.13113403320312,127.1385726928711
46,42,44,41,34,66,45,60,35,64,105,49,51,55,70,41,51.916175842285156,67.2527084350586,125.4352035522461,139.5845489501953,140.66644287109375,127.25267028808594,45.15971374511719,50.37668228149414,51.153602600097656,70.58424377441406,73.9736099243164,78.55797576904297,124.11820220947266,176.40530395507812,186.58058166503906,170.55726623535156,150.54310607910156,126.6942138671875
44,41,44,40,36,47,35,51,33,56,100,49,53,57,65,39,52.80162811279297,70.19743347167969,127.3633804321289,142.86341857910156,143.45249938964844,129.4023895263672,42.897361755371094,48.731346130371094,49.42414855957031,66.20669555664062,69.00382232666016,73.595703125,124.54280090332031,176.05960083007812,185.14720153808594,167.27537536621094,147.00942993164062,123.45231628417969
36,41,46,42,34,45,35,40,32,50,101,46,50,55,49,38,52.3753547668457,71.9599838256836,128.22149658203125,144.70220947265625,145.33328247070312,130.64059448242188,39.8951530456543,45.55113220214844,44.653114318847656,58.85102462768555,60.28126525878906,65.84305572509766,124.29258728027344,174.98695373535156,182.89404296875,163.76702880859375,142.94027709960938,119.80593872070312
34,41,44,36,36,42,32,31,31,51,100,44,51,56,46,38,50.009525299072266,72.23060607910156,128.06735229492188,144.87545776367188,145.08505249023438,129.81668090820312,36.38712692260742,40.25680923461914,35.96167755126953,48.335365295410156,48.99250793457031,56.16621398925781,123.50199127197266,173.2291259765625,179.0027618408203,159.142578125,137.8898468017578,115.43890380859375
36,45,50,38,39,41,30,35,31,53,96,43,61,81,53,34,47.71579360961914,71.90320587158203,127.09029388427734,143.64138793945312,144.03439331054688,128.8468475341797,32.58124542236328,32.57533645629883,22.915132522583008,34.94047546386719,34.668983459472656,44.30876159667969,123.16458892822266,172.08779907226562,175.6444091796875,156.80357360839844,134.2895965576172,112.60293579101562
34,54,52,38,38,39,31,38,32,65,95,47,77,89,56,38,42.18358612060547,69.86297607421875,121.51768493652344,138.20663452148438,136.92727661132812,122.60242462158203,26.714065551757812,17.136215209960938,-3.9104790687561035,6.172290802001953,6.229462623596191,21.24042510986328,122.4277114868164,168.42990112304688,165.67938232421875,147.4753875732422,123.63835906982422,104.55127716064453
32,54,56,38,35,38,30,38,34,67,92,48,93,91,54,36,38.89303207397461,66.14954376220703,114.8818359375,132.0196533203125,130.39552307128906,117.68569946289062,23.899280548095703,10.089720726013184,-16.242082595825195,-8.5389404296875,-8.027235984802246,9.226165771484375,122.321044921875,167.4737548828125,163.35987854003906,145.41558837890625,120.99901580810547,102.58539581298828
32,53,63,38,39,35,31,42,32,66,87,49,95,95,53,38,35.58637237548828,62.148616790771484,107.89241027832031,125.03303527832031,123.0103530883789,111.90284729003906,21.013355255126953,4.064289569854736,-26.292011260986328,-21.303537368774414,-20.657888412475586,-1.9419225454330444,122.10196685791016,166.57785034179688,161.6048126220703,143.51893615722656,118.68868255615234,100.54640197753906
36,62,60,37,42,34,32,42,34,65,99,48,96,101,55,40,32.9249153137207,58.94952392578125,102.23981475830078,118.99120330810547,116.50486755371094,106.6277084350586,17.840139389038086,-1.3976879119873047,-34.45682907104492,-31.633371353149414,-30.892038345336914,-11.201387405395508,121.8970718383789,165.74082946777344,159.96954345703125,141.63949584960938,116.55369567871094,98.61787414550781
34,62,56,34,41,34,32,41,32,59,117,50,93,88,41,39,30.321517944335938,55.86001968383789,97.02823638916016,113.28839874267578,110.4309310913086,101.49747467041016,14.37750244140625,-7.637249946594238,-42.66127395629883,-41.17637252807617,-39.40609359741211,-18.771507263183594,121.09375762939453,163.89158630371094,156.5900115966797,137.80596923828125,113.11737823486328,95.70601654052734
38,61,55,38,42,34,31,37,36,54,128,53,84,79,39,38,27.375415802001953,52.35261154174805,91.41986846923828,107.18756103515625,104.09098052978516,95.99440002441406,11.056921005249023,-13.267053604125977,-50.156341552734375,-49.770050048828125,-46.8414306640625,-25.617563247680664,120.84757232666016,162.70440673828125,154.0146942138672,134.657958984375,111.12846374511719,93.87266540527344
41,60,50,39,42,34,30,36,34,50,131,51,65,72,40,39,19.61454963684082,41.81521224975586,76.39979553222656,91.89228057861328,89.6006088256836,83.34699249267578,6.451076507568359,-21.485511779785156,-62.40497589111328,-63.842769622802734,-58.58027267456055,-37.091102600097656,121.07567596435547,162.21519470214844,152.39341735839844,131.9591522216797,111.90371704101562,94.59619903564453
40,61,45,38,38,33,29,31,38,97,152,55,64,69,41,39,15.641762733459473,36.15053939819336,67.8582992553711,83.055908203125,81.01399230957031,76.11841583251953,4.529444694519043,-24.780576705932617,-68.01545715332031,-70.6001205444336,-65.05361938476562,-43.09267044067383,120.87653350830078,161.92947387695312,151.8389434814453,131.05897521972656,111.78089904785156,95.08296966552734
40,54,52,38,34,34,29,36,38,100,175,59,66,64,45,41,11.952978134155273,30.54201316833496,59.25239181518555,74.24983978271484,72.57945251464844,68.9856948852539,2.2037875652313232,-28.240665435791016,-73.669189453125,-77.23887634277344,-71.55990600585938,-49.460296630859375,121.17792510986328,162.31094360351562,152.1587677001953,131.4339599609375,112.38525390625,95.88068389892578
44,53,62,38,34,32,30,35,41,106,181,63,62,60,50,39,7.9978179931640625,24.001754760742188,49.35313415527344,64.40791320800781,63.347103118896484,61.28832244873047,0.40260636806488037,-31.348499298095703,-78.92105865478516,-83.30133056640625,-77.4312973022461,-55.220115661621094,121.14334106445312,162.3677215576172,152.1627655029297,131.7069549560547,112.80607604980469,96.50505828857422
45,54,67,37,33,31,28,34,38,110,180,73,56,58,51,38,3.156381845474243,16.634620666503906,38.2147102355957,53.07048797607422,52.515968322753906,51.94416427612305,-0.8900906443595886,-33.70600891113281,-83.23934936523438,-88.6269760131836,-82.66387939453125,-60.49094772338867,120.76998901367188,162.05648803710938,151.79722595214844,131.445068359375,112.70388793945312,96.57929992675781
44,65,72,40,34,30,32,36,41,113,210,80,68,63,52,41,-2.045579195022583,8.88498592376709,26.184797286987305,40.5568962097168,40.4271354675293,41.303497314453125,-1.4581375122070312,-35.52327346801758,-86.70719146728516,-93.07767486572266,-86.93270874023438,-64.81710815429688,120.22565460205078,161.24600219726562,150.4744415283203,130.05966186523438,111.49146270751953,95.65514373779297
44,76,71,39,34,32,31,38,51,98,249,122,77,82,52,39,-13.577128410339355,-6.8587870597839355,0.2503187656402588,12.288678169250488,12.244270324707031,15.875107765197754,-0.4289138913154602,-37.755393981933594,-90.7577133178711,-98.55996704101562,-91.60796356201172,-69.38865661621094,119.20882415771484,158.23696899414062,144.45428466796875,122.9958267211914,105.1818618774414,90.15110778808594
42,76,74,44,37,39,33,39,55,106,277,134,77,94,53,38,-19.11062240600586,-14.052765846252441,-12.734619140625,-2.7042551040649414,-2.842805862426758,1.987263560295105,0.9209776520729065,-38.039573669433594,-91.0660171508789,-99.35327911376953,-91.81188201904297,-69.60848236083984,118.67774963378906,156.32940673828125,140.7842254638672,118.36129760742188,101.34773254394531,86.53154754638672
38,86,71,46,42,43,33,45,59,167,332,148,97,98,51,46,-23.775585174560547,-20.666057586669922,-24.71462631225586,-16.7418155670166,-16.720056533813477,-10.415431022644043,3.5786850452423096,-35.97136306762695,-88.80970764160156,-97.85680389404297,-90.12323760986328,-68.28751373291016,118.5018081665039,155.7423858642578,139.88211059570312,116.68864440917969,100.41804504394531,85.36210632324219
38,84,74,46,46,42,35,50,71,187,367,177,113,107,63,55,-27.22917938232422,-25.959775924682617,-34.137794494628906,-27.95826530456543,-27.685396194458008,-19.846683502197266,5.5164875984191895,-34.45516586303711,-86.77090454101562,-96.23884582519531,-88.33528137207031,-66.83595275878906,118.39219665527344,155.28390502929688,139.15811157226562,115.29850006103516,99.8157958984375,84.5711441040039
41,79,88,43,46,44,34,49,86,193,416,195,121,107,67,56,-30.227920532226562,-31.039875030517578,-41.9722785949707,-37.13001251220703,-36.21198654174805,-26.79481315612793,6.959575653076172,-33.10451889038086,-84.90283203125,-94.68238067626953,-86.70349884033203,-65.59942626953125,118.38389587402344,155.18309020996094,138.90960693359375,114.43757629394531,99.96075439453125,84.48722076416016
51,79,93,49,47,47,35,51,83,196,401,197,119,101,72,59,-31.03594207763672,-29.205907821655273,-45.5533447265625,-45.3266487121582,-43.34372329711914,-33.704833984375,7.181243896484375,-35.12461853027344,-84.99205017089844,-93.62460327148438,-85.09870910644531,-63.693138122558594,120.38508605957031,155.72225952148438,137.5039520263672,110.91790771484375,98.73773193359375,83.10739135742188
56,85,95,56,44,42,35,50,87,208,425,223,140,99,75,64,-33.71122360229492,-31.35268783569336,-55.86064147949219,-60.22505569458008,-56.79632568359375,-45.12128829956055,9.347740173339844,-35.512996673583984,-81.78307342529297,-88.82669067382812,-80.303466796875,-59.319801330566406,122.22581481933594,157.244873046875,136.62588500976562,108.3632583618164,98.63819122314453,82.67327880859375
62,81,106,61,45,38,34,46,94,182,418,245,135,104,89,64,-35.456016540527344,-33.762603759765625,-60.84427261352539,-66.26361846923828,-63.01020050048828,-50.184776306152344,10.164236068725586,-35.30259704589844,-80.21971893310547,-86.70199584960938,-78.15797424316406,-57.57771682739258,122.47985076904297,157.30728149414062,136.27403259277344,107.74535369873047,98.61078643798828,82.51403045654297
65,83,114,74,48,46,34,42,102,180,417,253,127,118,83,60,-37.39493179321289,-36.567626953125,-65.58983612060547,-71.6122817993164,-68.6376724243164,-54.90843963623047,10.054443359375,-35.61048126220703,-79.57571411132812,-85.61040496826172,-76.99835205078125,-56.79143142700195,122.17730712890625,156.75238037109375,135.4735107421875,106.7560806274414,98.02462768554688,81.89700317382812
65,92,119,83,51,48,38,45,113,193,404,291,123,142,88,60,-39.98329544067383,-40.42185974121094,-73.84112548828125,-78.38733673095703,-75.45613861083984,-60.96263122558594,10.0672607421875,-35.67713928222656,-77.94084930419922,-83.92108917236328,-75.25202941894531,-55.5202751159668,122.05211639404297,156.11460876464844,134.406494140625,106.13250732421875,97.50416564941406,81.49815368652344
60,99,131,93,59,52,42,46,115,237,438,327,151,147,89,65,-42.2184944152832,-43.334991455078125,-79.44404602050781,-83.11851501464844,-80.50408935546875,-65.49231719970703,10.556456565856934,-35.080230712890625,-76.29183959960938,-82.39073944091797,-73.5988998413086,-54.23320388793945,120.18553161621094,154.12139892578125,132.30780029296875,104.31562805175781,95.82557678222656,79.78922271728516
84,106,151,96,72,57,45,54,118,296,410,322,156,146,91,63,-43.975738525390625,-46.08415222167969,-84.4043960571289,-87.81275177001953,-85.29722595214844,-69.84893035888672,11.779090881347656,-33.51820755004883,-73.64517974853516,-79.96929168701172,-71.1795883178711,-52.35200500488281,119.05481719970703,153.27442932128906,131.8772430419922,104.02867889404297,95.53839874267578,79.4841537475586
84,116,154,109,73,57,45,54,148,421,465,388,177,153,90,72,-45.591087341308594,-48.56034469604492,-88.18328094482422,-91.35093688964844,-88.93714904785156,-73.27982330322266,12.791872024536133,-32.2832145690918,-71.61410522460938,-78.05612182617188,-69.21324157714844,-50.66568374633789,118.14801788330078,152.4586944580078,131.16624450683594,103.34895324707031,94.88058471679688,79.1325454711914
87,123,162,109,78,57,44,57,144,434,474,384,192,153,90,73,-48.62889862060547,-53.30093002319336,-94.98258209228516,-98.14214324951172,-95.81046295166016,-79.8741226196289,14.848783493041992,-29.909677505493164,-67.57903289794922,-74.08799743652344,-65.1698226928711,-47.09086227416992,116.1163330078125,150.61029052734375,129.6138916015625,101.74002075195312,93.36080169677734,78.0435562133789
99,170,178,116,82,68,42,63,134,440,457,355,202,135,83,78,-49.96293640136719,-55.59313201904297,-98.33135986328125,-101.51636505126953,-99.12281036376953,-82.9295654296875,15.850634574890137,-28.7086124420166,-65.42728424072266,-71.95646667480469,-63.03813934326172,-45.2717170715332,114.86876678466797,149.4822235107422,128.6350860595703,100.69845581054688,92.37123107910156,77.11430358886719
110,207,189,136,85,64,36,73,135,419,430,358,187,129,84,76,-51.34098434448242,-57.783817291259766,-101.6248779296875,-104.88914489746094,-102.43144226074219,-86.12097930908203,16.868812561035156,-27.498502731323242,-63.25570297241211,-69.7888412475586,-60.87812423706055,-43.36045455932617,113.74188232421875,148.4830322265625,127.94486236572266,99.87639617919922,91.59608459472656,76.41676330566406
96,219,176,132,77,67,30,67,134,400,428,390,170,126,81,75,-53.570159912109375,-61.484596252441406,-106.99759674072266,-110.32522583007812,-107.67497253417969,-91.4011001586914,18.11368179321289,-25.49208641052246,-59.89299011230469,-66.67839813232422,-57.8951301574707,-40.76980209350586,111.79956817626953,147.34120178222656,127.74272155761719,99.17745971679688,90.84456634521484,75.71472930908203
94,228,171,119,79,72,32,71,104,263,340,312,153,126,78,66,-53.570159912109375,-61.484596252441406,-106.99759674072266,-110.32522583007812,-107.67497253417969,-91.4011001586914,18.11368179321289,-25.49208641052246,-59.89299011230469,-66.67839813232422,-57.8951301574707,-40.76980209350586,111.79956817626953,147.34120178222656,127.74272155761719,99.17745971679688,90.84456634521484,75.71472930908203
93,233,177,122,73,68,34,70,97,247,293,309,132,112,80,64,-54.4413948059082,-62.73129653930664,-108.81462860107422,-112.14424896240234,-109.4417953491211,-93.22122955322266,18.368764877319336,-25.119606018066406,-59.03609848022461,-65.80647277832031,-57.03766632080078,-39.95259475708008,111.17688751220703,146.83473205566406,127.53270721435547,98.70840454101562,90.4134292602539,75.2880859375
79,241,154,111,67,55,33,63,87,223,258,305,109,111,82,53,-56.47297668457031,-65.00807189941406,-111.88932037353516,-115.24618530273438,-112.42106628417969,-96.40534210205078,18.446657180786133,-25.173385620117188,-58.43402099609375,-64.91510009765625,-56.1402587890625,-38.87635040283203,110.7148208618164,145.8971405029297,127.13184356689453,97.76204681396484,89.67804718017578,74.67892456054688
70,208,136,83,62,53,34,46,81,212,244,266,101,108,77,46,-57.052955627441406,-65.62457275390625,-112.72315979003906,-116.03103637695312,-113.12711334228516,-97.2564926147461,18.465681076049805,-25.20352554321289,-58.32839584350586,-64.72010040283203,-55.968135833740234,-38.57747268676758,110.60047912597656,145.57485961914062,127.0597915649414,97.4375991821289,89.47928619384766,74.55055236816406
60,190,130,82,59,44,35,43,71,154,230,203,95,105,74,42,-57.38787078857422,-65.9715347290039,-113.16368103027344,-116.38897705078125,-113.40306091308594,-97.66976165771484,18.480836868286133,-25.187808990478516,-58.3136100769043,-64.66744232177734,-55.95200729370117,-38.4469108581543,110.56118774414062,145.40121459960938,127.11595153808594,97.25470733642578,89.39779663085938,74.554931640625
62,170,135,81,48,36,34,38,58,186,206,195,82,81,61,38,-57.45660400390625,-66.08211517333984,-113.27622985839844,-116.40596771240234,-113.31803894042969,-97.70591735839844,18.480308532714844,-25.11363983154297,-58.33721160888672,-64.6956558227539,-56.03620529174805,-38.44334030151367,110.52816772460938,145.34390258789062,127.225341796875,97.15576934814453,89.3620376586914,74.6611557006836
57,159,111,67,44,40,33,37,55,159,197,167,79,80,70,48,-57.449825286865234,-66.14429473876953,-113.32704162597656,-116.36408996582031,-113.18225860595703,-97.63308715820312,18.47382354736328,-25.00755500793457,-58.33885955810547,-64.72747802734375,-56.12495803833008,-38.492774963378906,110.52289581298828,145.36639404296875,127.40058135986328,97.1445083618164,89.41334533691406,74.87281799316406
56,136,101,65,41,46,30,37,52,159,188,154,77,75,67,47,-56.84425735473633,-65.12604522705078,-111.90257263183594,-114.7054214477539,-111.41333770751953,-96.14485168457031,18.106111526489258,-25.458602905273438,-59.441890716552734,-65.75711059570312,-57.20466995239258,-39.26921463012695,110.79910278320312,145.41685485839844,127.47306060791016,96.94961547851562,89.50318908691406,75.20491027832031
44,171,88,46,31,47,30,39,49,160,187,112,73,72,77,47,-55.81607437133789,-63.189430236816406,-109.19957733154297,-111.94929504394531,-107.86949920654297,-93.47296905517578,17.48375701904297,-26.17901039123535,-61.3360710144043,-67.77705383300781,-59.44395065307617,-40.884151458740234,111.2212142944336,145.791748046875,127.71794128417969,98.37963104248047,89.96454620361328,75.57378387451172
45,186,87,44,41,54,31,40,49,159,156,87,76,70,92,49,-55.81607437133789,-63.189430236816406,-109.19957733154297,-111.94929504394531,-107.86949920654297,-93.47296905517578,17.48375701904297,-26.17901039123535,-61.3360710144043,-67.77705383300781,-59.44395065307617,-40.884151458740234,111.2212142944336,145.791748046875,127.71794128417969,98.37963104248047,89.96454620361328,75.57378387451172
38,193,62,43,45,57,28,40,45,131,142,65,72,80,119,55,-51.707584381103516,-56.111995697021484,-98.20478820800781,-100.36965942382812,-95.82941436767578,-82.84906768798828,14.51159381866455,-28.892614364624023,-68.58001708984375,-75.7912826538086,-67.26390075683594,-47.699275970458984,111.42672729492188,146.71888732910156,128.1441192626953,101.87541198730469,90.66231536865234,76.3382339477539
39,195,49,38,46,61,34,51,44,128,128,62,67,73,115,44,-49.10561752319336,-51.67021942138672,-91.05845642089844,-92.55186462402344,-88.26441955566406,-76.44464111328125,12.527435302734375,-30.566715240478516,-72.97687530517578,-80.51860046386719,-71.74883270263672,-51.495887756347656,111.8139877319336,147.49649047851562,128.54739379882812,103.22139739990234,91.41603088378906,77.01424407958984
36,165,57,36,51,64,34,53,46,139,127,62,66,89,159,61,-46.2664680480957,-46.88260269165039,-83.53582000732422,-84.38436126708984,-80.6429214477539,-69.9674301147461,10.483450889587402,-32.06804275512695,-77.12869262695312,-84.97293090820312,-75.95216369628906,-55.13288116455078,112.48385620117188,148.552490234375,129.4351806640625,104.96236419677734,92.67858123779297,78.21736907958984
34,121,60,33,53,73,40,55,48,155,91,57,67,86,166,66,-42.985286712646484,-42.22779083251953,-76.1068344116211,-76.43275451660156,-73.2942886352539,-63.548336029052734,8.979413032531738,-32.732845306396484,-80.19684600830078,-88.3065185546875,-79.12319946289062,-57.929054260253906,113.0472412109375,149.9747314453125,130.47164916992188,106.691162109375,94.07848358154297,79.4620590209961
37,93,54,33,45,88,44,54,44,153,88,59,60,82,171,69,-39.91112518310547,-37.70314025878906,-68.20975494384766,-68.20172882080078,-65.76840209960938,-57.27566909790039,7.170254230499268,-33.8308219909668,-83.7004623413086,-91.76063537597656,-82.3130874633789,-60.5852165222168,114.04813385009766,151.4073944091797,131.23971557617188,107.89521789550781,95.4276351928711,80.4430160522461
42,75,58,33,43,98,45,53,39,128,83,48,59,90,173,65,-37.63484191894531,-34.093284606933594,-60.952171325683594,-60.5164680480957,-58.01268768310547,-50.81278610229492,5.738733768463135,-34.58795166015625,-86.5831298828125,-94.63865661621094,-85.07438659667969,-62.91109085083008,114.80741119384766,152.72386169433594,131.7644500732422,108.75218963623047,96.72156524658203,81.28952026367188
38,60,58,30,41,98,43,42,39,127,83,46,59,92,185,65,-33.9969367980957,-29.28457260131836,-49.377105712890625,-46.19480514526367,-43.590030670166016,-38.32865905761719,4.503448486328125,-33.784549713134766,-89.02896881103516,-97.74304962158203,-88.3125991821289,-66.21092987060547,114.87800598144531,154.75315856933594,134.136962890625,111.54264831542969,100.9669189453125,83.93434143066406
38,46,49,33,37,100,52,49,36,118,75,41,58,77,155,66,-32.84333801269531,-28.377073287963867,-45.33259582519531,-39.728824615478516,-37.95457077026367,-33.19990921020508,4.932166576385498,-32.30518341064453,-88.75548553466797,-97.64580535888672,-88.40676879882812,-66.49055480957031,115.15596008300781,156.05172729492188,135.72108459472656,113.57816314697266,103.18797302246094,85.61353302001953
39,47,43,34,36,94,49,72,42,107,74,43,51,78,148,71,-30.97120475769043,-26.42264747619629,-39.548492431640625,-31.56011199951172,-30.502994537353516,-26.510334014892578,5.436190128326416,-30.48365592956543,-88.25534057617188,-97.19661712646484,-88.24699401855469,-66.60819244384766,115.91085815429688,157.9688720703125,138.38465881347656,116.94458770751953,106.44294738769531,88.30215454101562
36,46,42,33,39,82,46,74,43,106,73,39,52,81,146,74,-28.428035736083984,-23.264753341674805,-32.37055969238281,-22.79755973815918,-21.796567916870117,-18.983905792236328,5.942296504974365,-28.54280662536621,-87.4933090209961,-96.3903579711914,-87.67059326171875,-66.40769958496094,117.17864990234375,160.3600311279297,141.90536499023438,121.3702163696289,110.40626525878906,91.7308349609375
31,47,40,35,37,72,48,88,44,100,71,37,50,65,149,83,-25.515724182128906,-19.553775787353516,-24.51456642150879,-13.396846771240234,-12.221661567687988,-10.971780776977539,6.1443281173706055,-27.196247100830078,-86.92790985107422,-95.4060287475586,-86.80962371826172,-65.91504669189453,118.30573272705078,162.28338623046875,144.65171813964844,124.9992446899414,113.40530395507812,94.55146789550781
28,47,42,39,40,79,49,109,48,100,77,37,52,57,152,109,-22.81094741821289,-16.53502655029297,-17.472917556762695,-4.601820468902588,-3.5253076553344727,-3.3219926357269287,6.590973377227783,-25.924428939819336,-86.02888488769531,-93.74797058105469,-85.39578247070312,-64.71713256835938,119.41287231445312,163.96780395507812,146.81683349609375,128.22645568847656,115.62879943847656,97.08047485351562
31,44,40,39,42,83,47,115,51,85,73,40,49,58,159,106,-17.987581253051758,-10.732017517089844,-4.162753582000732,11.598082542419434,12.2693452835083,10.339510917663574,7.607590198516846,-23.073345184326172,-83.29791259765625,-89.1069564819336,-81.57704162597656,-61.56989669799805,121.24506378173828,166.94961547851562,151.3051300048828,134.9943084716797,120.10685729980469,101.89803314208984
39,49,37,40,45,84,48,130,45,109,70,40,60,57,153,102,-15.507336616516113,-7.087923049926758,2.814929723739624,19.39125633239746,19.841699600219727,16.682830810546875,7.762244701385498,-21.870071411132812,-81.88243103027344,-86.74622344970703,-79.62156677246094,-60.057106018066406,122.00861358642578,168.20814514160156,153.42446899414062,137.77157592773438,121.9017333984375,103.83629608154297
39,51,39,40,43,82,48,130,46,139,69,41,60,56,143,99,-13.338808059692383,-3.9648642539978027,8.937540054321289,26.147647857666016,26.602182388305664,22.462387084960938,8.116130828857422,-20.36026382446289,-80.06584167480469,-84.11156463623047,-77.3148422241211,-58.30146026611328,122.59784698486328,169.34222412109375,155.56446838378906,140.44688415527344,123.79022216796875,105.62255859375
42,50,38,38,44,79,48,127,51,151,73,41,66,51,117,91,-11.379899978637695,-0.7568517923355103,15.552543640136719,33.37294387817383,33.7273063659668,28.379783630371094,8.002994537353516,-19.939144134521484,-78.83625793457031,-81.60265350341797,-74.89580535888672,-56.250587463378906,123.51978302001953,170.32391357421875,156.57928466796875,141.8374481201172,124.48265075683594,106.60700988769531
43,53,38,35,45,66,45,112,49,176,69,42,69,59,114,61,-8.104992866516113,4.573363780975342,27.49556541442871,46.40816116333008,46.97930908203125,39.13711929321289,8.100332260131836,-18.34632682800293,-75.18042755126953,-75.26331329345703,-68.6409912109375,-51.32169723510742,125.29608154296875,172.46438598632812,159.3065643310547,145.52694702148438,126.6690444946289,109.23262023925781
42,54,42,34,45,61,38,103,49,180,70,39,72,92,111,52,-8.104992866516113,4.573363780975342,27.49556541442871,46.40816116333008,46.97930908203125,39.13711929321289,8.100332260131836,-18.34632682800293,-75.18042755126953,-75.26331329345703,-68.6409912109375,-51.32169723510742,125.29608154296875,172.46438598632812,159.3065643310547,145.52694702148438,126.6690444946289,109.23262023925781
36,45,42,35,47,88,47,71,55,165,67,39,67,93,121,54,-6.845471382141113,7.026257038116455,33.05902862548828,52.43541717529297,52.77385330200195,43.8004264831543,7.79062032699585,-17.72412872314453,-73.3001480102539,-71.8597412109375,-65.52051544189453,-48.95271682739258,125.94474792480469,173.29391479492188,160.46900939941406,147.06118774414062,127.56111145019531,110.26180267333984
40,42,40,33,51,118,57,99,57,143,67,37,68,93,120,49,-4.932033061981201,10.357988357543945,40.9378776550293,61.12959289550781,61.43982696533203,50.65334701538086,7.813734531402588,-16.114830017089844,-69.53883361816406,-65.33738708496094,-59.28839111328125,-44.519775390625,127.01509857177734,174.7609100341797,162.693115234375,150.0456085205078,129.7172088623047,112.31705474853516
37,44,41,34,50,120,55,116,61,148,59,38,62,99,123,49,-3.764364719390869,11.888070106506348,44.57148361206055,65.14439392089844,65.601318359375,54.27886199951172,7.772387981414795,-15.463366508483887,-67.74528503417969,-62.00761413574219,-56.08519744873047,-42.11004638671875,127.65814971923828,175.6313018798828,164.00775146484375,151.97389221191406,131.17420959472656,113.65668487548828
35,40,39,32,47,124,57,114,63,124,52,36,58,96,128,47,-2.612095355987549,13.769074440002441,48.62188720703125,69.38300323486328,69.93956756591797,57.82307434082031,7.81237268447876,-14.606427192687988,-65.55109405517578,-58.18680953979492,-52.1348876953125,-39.316951751708984,128.1575927734375,176.2789306640625,164.94912719726562,153.31907653808594,132.27976989746094,114.59073638916016
35,39,36,30,46,123,59,116,63,131,44,34,55,86,141,59,-0.333274245262146,16.95275115966797,55.732975006103516,76.65839385986328,77.51224517822266,64.85003662109375,7.976953983306885,-12.451308250427246,-60.78168869018555,-50.30235290527344,-43.8718376159668,-32.96834945678711,129.1846466064453,177.87774658203125,167.78353881835938,157.0212860107422,135.8916015625,117.34650421142578
35,42,38,28,43,115,57,116,64,125,48,31,56,88,145,69,-0.333274245262146,16.95275115966797,55.732975006103516,76.65839385986328,77.51224517822266,64.85003662109375,7.976953983306885,-12.451308250427246,-60.78168869018555,-50.30235290527344,-43.8718376159668,-32.96834945678711,129.1846466064453,177.87774658203125,167.78353881835938,157.0212860107422,135.8916015625,117.34650421142578
37,40,36,30,37,91,48,107,62,133,49,30,57,92,165,82,1.1585232019424438,19.218212127685547,59.802188873291016,80.68768310546875,81.43473052978516,68.3856201171875,7.9064459800720215,-12.128646850585938,-58.90549087524414,-46.00965118408203,-39.520694732666016,-29.54325294494629,129.60044860839844,178.17852783203125,167.7879180908203,157.78982543945312,136.43179321289062,117.67472076416016
41,42,36,31,38,100,55,105,60,108,48,29,56,89,170,89,4.194479942321777,24.195072174072266,66.95330047607422,87.39818572998047,87.8332290649414,74.44647216796875,8.590093612670898,-10.870051383972168,-55.398765563964844,-38.37919616699219,-31.04804801940918,-21.914770126342773,130.64649963378906,178.69989013671875,167.0913543701172,158.2967987060547,136.70950317382812,117.86473083496094
42,44,37,38,40,100,57,110,63,107,54,34,60,94,199,91,5.989302635192871,27.020658493041992,64.70580291748047,90.8628921508789,91.01737213134766,77.62885284423828,9.163531303405762,-9.549346923828125,-4.300914764404297,-33.732177734375,-26.611328125,-17.7410831451416,131.2146453857422,179.12681579589844,175.2314910888672,159.00096130371094,137.07049560546875,117.9226303100586
42,49,37,42,38,104,60,114,64,125,56,35,62,78,198,84,8.485562324523926,32.257747650146484,67.67865753173828,96.1920166015625,95.15225982666016,80.77114868164062,9.846056938171387,-7.494791030883789,10.873390197753906,-27.563167572021484,-21.66176414489746,-13.675724983215332,131.29837036132812,178.4412384033203,174.71652221679688,156.5709686279297,134.11581420898438,115.24124145507812
43,46,39,41,39,97,57,122,66,135,59,37,57,73,202,89,10.83376693725586,36.3741340637207,70.36162567138672,100.85342407226562,99.0874252319336,84.00450134277344,9.73717975616455,-7.043971061706543,15.088134765625,-22.396760940551758,-16.458219528198242,-9.423681259155273,130.7785186767578,177.19569396972656,173.3983612060547,154.20669555664062,131.86245727539062,113.08939361572266
40,45,40,41,40,103,62,127,66,130,60,37,61,74,192,92,12.712706565856934,38.99782180786133,72.13272094726562,103.8193130493164,101.8116683959961,86.52001190185547,10.570235252380371,-5.283766269683838,18.44211769104004,-17.65619468688965,-12.201815605163574,-5.447204113006592,130.86114501953125,177.1904754638672,173.25103759765625,154.2904052734375,131.75241088867188,113.12676239013672
38,42,41,38,40,115,58,123,67,136,75,37,68,78,201,95,14.402962684631348,41.31903839111328,73.38906860351562,106.41561126708984,104.29051971435547,88.8182601928711,11.706061363220215,-2.864265203475952,22.198259353637695,-11.837981224060059,-7.383738040924072,-1.090051293373108,130.77635192871094,177.16683959960938,172.95761108398438,154.7108612060547,131.7664031982422,113.16824340820312
42,40,41,34,39,118,57,132,80,137,74,33,71,74,204,98,16.747005462646484,44.99885559082031,75.46470642089844,109.98217010498047,107.71104431152344,91.70580291748047,14.744979858398438,1.604416012763977,28.602882385253906,-1.4586305618286133,1.6478745937347412,7.644228458404541,130.05499267578125,176.08059692382812,171.6292724609375,153.72024536132812,129.82037353515625,111.81499481201172
44,33,44,33,46,126,63,193,87,133,74,32,73,72,199,103,16.747005462646484,44.99885559082031,75.46470642089844,109.98217010498047,107.71104431152344,91.70580291748047,14.744979858398438,1.604416012763977,28.602882385253906,-1.4586305618286133,1.6478745937347412,7.644228458404541,130.05499267578125,176.08059692382812,171.6292724609375,153.72024536132812,129.82037353515625,111.81499481201172
43,39,48,34,46,127,66,189,90,134,77,36,79,75,252,118,22.487756729125977,53.15070724487305,80.25343322753906,117.41864776611328,114.33778381347656,97.30765533447266,17.760286331176758,7.021161079406738,37.43198013305664,12.203007698059082,15.500779151916504,19.955493927001953,129.5438690185547,174.64349365234375,170.09593200683594,150.985107421875,126.88079071044922,109.58159637451172
44,44,51,34,48,126,63,224,94,134,87,36,83,68,262,119,34.24483108520508,64.29752349853516,87.44234466552734,128.21792602539062,125.67436981201172,108.86925506591797,18.83925437927246,12.872027397155762,46.456336975097656,25.93238639831543,28.432506561279297,30.326072692871094,130.5933380126953,176.97116088867188,172.7321319580078,155.5127716064453,131.1797637939453,113.24394226074219
46,47,52,35,51,126,70,242,93,130,86,34,85,69,271,117,38.22096633911133,67.18689727783203,88.74542236328125,130.95713806152344,129.02793884277344,112.7030258178711,21.141326904296875,17.275798797607422,51.94034957885742,33.29806137084961,35.357295989990234,36.825443267822266,130.93060302734375,178.21543884277344,174.14044189453125,158.3895721435547,133.873779296875,114.91649627685547
47,48,54,35,52,136,81,255,87,176,92,37,84,70,244,127,38.5008659362793,66.96688842773438,87.97423553466797,130.63967895507812,129.0079345703125,112.97891235351562,22.85282325744629,18.60921287536621,53.721763610839844,36.190391540527344,38.58329772949219,40.32195281982422,130.394287109375,177.9510498046875,174.7554931640625,159.2316131591797,134.68199157714844,115.18093872070312
54,50,55,37,57,153,87,250,90,163,97,39,81,69,244,125,37.119789123535156,66.85962677001953,86.02961730957031,129.12181091308594,126.83472442626953,110.40653991699219,27.863813400268555,25.519271850585938,61.619136810302734,46.079795837402344,48.089698791503906,49.10152816772461,128.9997100830078,175.9069366455078,171.85862731933594,155.5055389404297,130.94715881347656,111.17361450195312
55,48,54,36,61,162,88,261,81,154,92,36,77,72,202,105,36.59095764160156,66.72410583496094,84.67512512207031,128.125732421875,125.64450073242188,109.03630065917969,30.796859741210938,28.693925857543945,65.47772216796875,51.65252685546875,53.866249084472656,54.89030456542969,128.41403198242188,175.08248901367188,171.4681396484375,154.595458984375,130.09225463867188,110.18731689453125
55,50,54,38,60,157,86,227,81,163,86,40,75,77,197,112,33.926082611083984,64.26602172851562,81.78644561767578,125.32205200195312,122.80220794677734,106.03700256347656,33.634117126464844,31.18663787841797,68.23626708984375,55.19015884399414,57.568241119384766,59.03495788574219,127.32332611083984,173.84213256835938,170.6892852783203,153.45159912109375,128.93792724609375,108.88126373291016
53,50,53,37,60,143,83,207,76,164,76,55,74,71,168,111,31.645360946655273,60.45098114013672,77.79342651367188,122.0008773803711,120.2925796508789,104.06686401367188,35.712303161621094,35.526241302490234,72.57877349853516,59.21146011352539,60.45000076293945,61.270050048828125,124.33929443359375,171.887451171875,167.71624755859375,152.4492645263672,127.7571792602539,107.05065155029297
52,49,56,42,68,140,79,192,69,110,69,69,74,68,156,94,32.949363708496094,61.49092102050781,78.30635833740234,122.82251739501953,121.17486572265625,104.9748306274414,37.03182601928711,38.85613250732422,76.02635955810547,62.874385833740234,63.302894592285156,63.51095199584961,124.19735717773438,171.8712158203125,166.58050537109375,151.9232635498047,127.24591064453125,106.27693939208984
43,51,62,50,62,111,62,141,49,100,78,83,80,68,143,92,32.71595001220703,61.540260314941406,78.16845703125,122.64762115478516,120.8231430053711,104.46512603759766,37.57065963745117,38.78440475463867,76.12274932861328,63.48728561401367,64.27095794677734,64.93212890625,124.3314437866211,171.85562133789062,167.0584716796875,151.8583221435547,127.25643157958984,106.20997619628906
40,53,80,61,58,93,55,118,49,91,85,88,84,85,113,86,32.29021453857422,61.596961975097656,78.26879119873047,122.55286407470703,120.4888916015625,103.87458038330078,37.58815383911133,38.68458938598633,76.00376892089844,63.37273406982422,64.14234924316406,64.9830551147461,124.39497375488281,171.62725830078125,166.7111358642578,150.97714233398438,126.40814971923828,105.50154876708984
40,58,92,71,62,95,58,116,42,62,95,109,85,84,87,59,35.36172866821289,66.67972564697266,85.36829376220703,128.04995727539062,125.01431274414062,107.53487396240234,31.866506576538086,29.765987396240234,66.20065307617188,51.6947021484375,53.31608581542969,55.86313247680664,125.31558990478516,171.2063751220703,166.66268920898438,148.4980010986328,123.9635009765625,103.96070861816406
38,62,94,79,69,108,58,104,40,57,104,107,84,88,80,52,35.126094818115234,66.32035064697266,88.56477355957031,129.47232055664062,126.50357818603516,109.20842742919922,26.155792236328125,20.483169555664062,54.90935134887695,36.44184494018555,38.59479522705078,43.10511016845703,125.74568939208984,171.41885375976562,167.10267639160156,148.485595703125,123.86750793457031,104.1792984008789
35,65,94,76,60,93,48,83,35,50,105,105,90,89,75,52,32.60667419433594,64.08518981933594,91.05419921875,128.19686889648438,124.70462799072266,107.64746856689453,19.45033836364746,7.7939910888671875,38.6939582824707,15.027702331542969,18.57598876953125,25.984342575073242,124.44830322265625,168.77247619628906,164.57179260253906,143.78125,119.50752258300781,100.65531921386719
37,69,89,78,72,90,50,75,39,48,98,99,88,95,80,49,25.660747528076172,56.396366119384766,89.21286010742188,119.09320831298828,114.99435424804688,98.11466217041016,9.5545072555542,-11.544862747192383,13.050232887268066,-17.22307586669922,-10.007155418395996,0.06176244840025902,123.4963607788086,164.74844360351562,160.25686645507812,134.82640075683594,111.81803131103516,97.22212982177734
38,69,70,76,73,90,51,60,36,49,96,96,84,78,70,47,25.660747528076172,56.396366119384766,89.21286010742188,119.09320831298828,114.99435424804688,98.11466217041016,9.5545072555542,-11.544862747192383,13.050232887268066,-17.22307586669922,-10.007155418395996,0.06176244840025902,123.4963607788086,164.74844360351562,160.25686645507812,134.82640075683594,111.81803131103516,97.22212982177734
35,61,55,70,71,89,44,52,34,51,91,71,82,74,66,48,21.785825729370117,49.90989303588867,85.3592300415039,111.52937316894531,108.34588623046875,92.45732116699219,4.308639049530029,-20.09894561767578,0.5321616530418396,-33.39020919799805,-25.140249252319336,-13.755805015563965,123.90653991699219,165.19815063476562,160.63931274414062,134.93942260742188,112.1888198852539,98.40809631347656
34,53,51,61,60,67,34,49,34,49,91,70,77,67,65,44,14.437535285949707,37.27226257324219,76.18082427978516,94.6033935546875,93.15823364257812,79.58999633789062,-5.267585277557373,-33.79136657714844,-20.95725440979004,-60.70623779296875,-52.070499420166016,-38.13434982299805,124.24502563476562,166.15972900390625,161.00924682617188,135.69615173339844,112.92257690429688,99.92586517333984
36,54,50,63,60,66,31,49,35,49,92,65,63,66,65,43,11.05588436126709,31.003841400146484,70.858154296875,86.58973693847656,86.2151107788086,73.81669616699219,-9.313971519470215,-39.766014099121094,-29.863309860229492,-70.92097473144531,-61.8692626953125,-46.955204010009766,123.83932495117188,165.87161254882812,161.4374237060547,135.85772705078125,113.2691421508789,100.44729614257812
33,47,55,56,45,63,28,52,34,49,102,68,57,60,56,42,7.85898494720459,25.555362701416016,65.98735809326172,79.33831024169922,79.80401611328125,68.33219146728516,-12.447453498840332,-44.41384506225586,-36.9196891784668,-78.8542251586914,-69.35503387451172,-53.70595932006836,123.650146484375,165.56715393066406,161.55093383789062,135.49295043945312,113.21196746826172,100.59446716308594
35,48,59,47,48,59,27,61,33,49,109,73,67,60,49,36,4.5352559089660645,19.793371200561523,60.65107727050781,71.9058837890625,73.27377319335938,62.76981735229492,-14.889896392822266,-47.84391784667969,-42.668704986572266,-85.39923095703125,-75.80955505371094,-59.59580612182617,123.04546356201172,165.1566619873047,161.7179412841797,135.62522888183594,113.45443725585938,100.91413879394531
38,54,58,41,54,60,27,63,36,48,111,75,65,59,44,32,1.3435437679290771,15.275365829467773,56.32269287109375,64.85389709472656,66.5367431640625,56.662479400634766,-16.60439682006836,-50.485897064208984,-47.555908203125,-90.85053253173828,-81.14852142333984,-64.42929077148438,122.11033630371094,163.9452667236328,160.0225372314453,133.53182983398438,111.51937103271484,99.31794738769531
40,58,56,46,58,59,28,65,35,45,124,75,64,55,44,36,-1.747789740562439,10.979273796081543,52.0723991394043,57.851715087890625,59.76954650878906,50.52600860595703,-17.920705795288086,-52.33174133300781,-51.616947174072266,-95.48521423339844,-85.8717041015625,-68.74796295166016,121.61016082763672,163.39767456054688,158.86219787597656,132.32276916503906,110.42774200439453,98.4112777709961
38,63,56,47,57,52,29,64,39,46,128,80,69,60,45,36,-7.3205718994140625,2.7515077590942383,43.58269119262695,44.00069808959961,46.440860748291016,38.607147216796875,-16.673444747924805,-51.950992584228516,-55.63005828857422,-100.10401916503906,-90.74908447265625,-72.90502166748047,119.85345458984375,161.64456176757812,156.10528564453125,129.65731811523438,108.11221313476562,96.2006607055664
42,66,60,47,56,52,25,60,40,47,133,87,70,62,46,36,-7.3205718994140625,2.7515077590942383,43.58269119262695,44.00069808959961,46.440860748291016,38.607147216796875,-16.673444747924805,-51.950992584228516,-55.63005828857422,-100.10401916503906,-90.74908447265625,-72.90502166748047,119.85345458984375,161.64456176757812,156.10528564453125,129.65731811523438,108.11221313476562,96.2006607055664
41,66,62,48,52,48,24,51,45,46,136,88,63,63,43,35,-13.078354835510254,-6.736719608306885,33.098960876464844,26.91681480407715,30.17241859436035,24.260679244995117,-13.789396286010742,-50.11564254760742,-59.224796295166016,-103.3487548828125,-94.16312408447266,-75.61148071289062,118.6879653930664,160.314697265625,153.7466583251953,127.27301025390625,106.66525268554688,94.3695297241211
40,65,64,48,44,38,25,37,44,55,154,88,69,65,42,35,-15.690051078796387,-12.155750274658203,26.85944366455078,17.344877243041992,21.200298309326172,16.711912155151367,-12.219949722290039,-48.30830001831055,-60.57612609863281,-104.4326400756836,-95.84732818603516,-77.08446502685547,118.62397003173828,160.7880401611328,154.3785858154297,128.51805114746094,108.0608901977539,95.39804077148438
41,61,72,45,42,34,26,37,49,70,201,102,72,71,43,30,-18.08858871459961,-17.648475646972656,20.295955657958984,7.543222427368164,11.966468811035156,9.041027069091797,-10.548223495483398,-46.2725944519043,-61.70732498168945,-104.92890167236328,-97.00830078125,-78.0916519165039,118.5738296508789,161.1920928955078,155.15011596679688,129.73001098632812,109.36634063720703,96.42803955078125
43,52,78,46,43,37,29,34,57,90,242,126,78,103,55,29,-21.232921600341797,-25.757610321044922,9.940059661865234,-8.008994102478027,-3.060640335083008,-3.1197707653045654,-7.982719421386719,-43.692447662353516,-63.87557601928711,-104.94532012939453,-97.71221160888672,-78.3594741821289,117.91250610351562,160.30613708496094,154.45118713378906,128.56820678710938,108.61981964111328,95.75849151611328
39,52,83,44,40,39,29,32,72,135,315,196,101,105,63,35,-22.310039520263672,-28.587337493896484,6.044226169586182,-14.040201187133789,-9.156803131103516,-7.990767955780029,-7.3794169425964355,-43.300289154052734,-65.19895935058594,-105.04772186279297,-97.90328216552734,-78.33403015136719,117.7619857788086,159.75282287597656,153.60748291015625,127.13373565673828,107.56118774414062,94.87263488769531
40,61,124,54,43,42,28,36,74,145,320,206,109,113,68,41,-22.310039520263672,-28.587337493896484,6.044226169586182,-14.040201187133789,-9.156803131103516,-7.990767955780029,-7.3794169425964355,-43.300289154052734,-65.19895935058594,-105.04772186279297,-97.90328216552734,-78.33403015136719,117.7619857788086,159.75282287597656,153.60748291015625,127.13373565673828,107.56118774414062,94.87263488769531
40,68,130,58,45,43,29,42,87,192,383,249,119,128,79,45,-24.4581356048584,-33.118587493896484,-0.9556379318237305,-26.786190032958984,-22.403718948364258,-18.194862365722656,-6.357022285461426,-43.00412368774414,-67.92706298828125,-104.99188995361328,-97.54191589355469,-77.48678588867188,117.60018157958984,158.52767944335938,150.62796020507812,122.0606918334961,104.16146850585938,92.08123779296875
48,76,134,59,45,47,29,42,105,209,411,258,135,131,84,52,-25.60470962524414,-35.16044998168945,-4.364185810089111,-34.09175491333008,-29.642271041870117,-23.46994400024414,-5.422939777374268,-42.012577056884766,-68.3446273803711,-104.11289978027344,-96.57048034667969,-76.51925659179688,117.66868591308594,158.4488525390625,149.6806640625,120.07796478271484,103.31245422363281,91.43551635742188
55,84,137,61,44,48,26,41,112,240,509,286,147,127,85,55,-26.755582809448242,-37.66370391845703,-8.237567901611328,-41.45533752441406,-36.63747024536133,-28.945158004760742,-4.411680221557617,-40.14276885986328,-67.99886322021484,-102.678955078125,-95.40641021728516,-75.7243423461914,117.83634185791016,159.0370635986328,150.236572265625,120.33042907714844,104.10438537597656,92.12055206298828
67,104,137,75,50,54,30,46,124,268,567,298,187,143,83,67,-27.17705726623535,-38.29330825805664,-10.067543029785156,-47.107845306396484,-42.377685546875,-33.20859909057617,-3.587749481201172,-39.06422424316406,-67.8927993774414,-101.3127212524414,-94.04502868652344,-74.63959503173828,118.24993133544922,159.61546325683594,150.0157470703125,119.86398315429688,104.29902648925781,92.19095611572266
82,110,117,83,52,59,36,49,135,285,606,331,210,160,83,74,-26.4429931640625,-34.73899841308594,-8.471885681152344,-52.01163101196289,-47.192779541015625,-37.328861236572266,-3.8559224605560303,-41.7032356262207,-70.42280578613281,-100.70291137695312,-92.69770050048828,-72.92111206054688,119.82284545898438,160.07069396972656,145.9708709716797,116.06175231933594,102.17117309570312,90.08116149902344
88,115,118,115,70,70,43,50,143,287,633,328,214,157,77,80,-26.6822566986084,-35.1063117980957,-9.390093803405762,-55.22562789916992,-49.83988571166992,-39.69609451293945,-3.677748680114746,-41.62180709838867,-70.52481079101562,-100.00109100341797,-92.07002258300781,-72.37049865722656,119.86958312988281,160.31289672851562,145.77590942382812,115.22575378417969,102.28854370117188,89.67705535888672
96,132,143,131,77,80,45,56,136,284,614,341,212,155,80,80,-27.17794418334961,-35.213687896728516,-11.617874145507812,-61.798187255859375,-56.570491790771484,-45.47258377075195,-2.823904514312744,-41.62016677856445,-70.67914581298828,-97.4931411743164,-89.54605102539062,-70.0970687866211,120.42008972167969,160.79290771484375,144.78944396972656,113.84449005126953,102.72952270507812,88.9768295288086
109,135,145,133,79,79,46,59,137,271,539,343,204,173,91,84,-27.267560958862305,-34.4326171875,-12.814825057983398,-65.83544921875,-61.15549850463867,-49.11735534667969,-1.6739469766616821,-40.884315490722656,-70.12053680419922,-95.03514099121094,-87.04865264892578,-68.04010009765625,121.3154296875,161.88978576660156,144.70924377441406,115.00618743896484,104.27088928222656,89.94184112548828
113,132,144,128,77,75,47,59,136,230,532,359,181,190,101,82,-27.507387161254883,-33.85039138793945,-13.805553436279297,-68.67381286621094,-65.18151092529297,-52.20907974243164,-0.9958695769309998,-40.27530288696289,-69.64501953125,-93.44625854492188,-85.2451171875,-66.80181121826172,121.82169342041016,162.62905883789062,145.0894775390625,116.62398529052734,105.93937683105469,90.98188781738281
110,130,159,130,75,75,48,58,127,217,535,328,159,171,97,77,-27.876741409301758,-33.57411575317383,-14.42488956451416,-70.43045806884766,-68.04065704345703,-55.01787567138672,-0.39523088932037354,-39.74422073364258,-69.16118621826172,-92.3452377319336,-83.85768127441406,-65.55253601074219,122.01803588867188,163.0784149169922,145.1016387939453,117.49393463134766,106.78217315673828,91.40836334228516
110,133,162,112,64,73,44,57,119,192,512,323,159,170,97,77,-28.45355987548828,-33.573909759521484,-15.152331352233887,-72.13240051269531,-71.05660247802734,-58.13604736328125,0.07235261052846909,-39.05609893798828,-68.68262481689453,-91.47689056396484,-82.65050506591797,-64.47992706298828,122.16854095458984,163.57568359375,145.386962890625,118.92431640625,107.50135040283203,92.1021499633789
103,124,142,96,63,63,45,51,113,217,511,308,151,176,93,75,-29.02720069885254,-33.70238494873047,-15.876710891723633,-73.92662048339844,-73.76287841796875,-61.334041595458984,0.5703524351119995,-38.3497200012207,-68.18981170654297,-90.54266357421875,-81.4659423828125,-63.234317779541016,122.20084381103516,163.86563110351562,145.50428771972656,120.67764282226562,107.44770050048828,92.52962493896484
90,147,171,93,67,63,46,60,113,211,519,296,159,153,84,80,-29.41071319580078,-33.70859146118164,-16.286834716796875,-75.98762512207031,-75.74948120117188,-63.68647003173828,0.7096595168113708,-38.298858642578125,-68.2160873413086,-89.83222198486328,-80.68923950195312,-62.31766891479492,122.18130493164062,163.65000915527344,145.0201416015625,121.71810913085938,106.84992218017578,92.06487274169922
84,150,180,92,65,61,44,59,92,210,478,246,140,114,69,75,-31.158607482910156,-34.91468811035156,-18.10669708251953,-80.89240264892578,-80.17485046386719,-68.1868896484375,0.8165756464004517,-38.23739242553711,-68.49974822998047,-88.5360336303711,-79.38654327392578,-61.092281341552734,121.54302215576172,161.9646759033203,143.240234375,124.60845184326172,104.96830749511719,89.96283721923828
98,161,174,82,72,65,39,65,91,202,435,257,133,116,71,77,-31.95065689086914,-35.674930572509766,-19.14188575744629,-82.85437774658203,-82.11611938476562,-70.0963134765625,0.9587618708610535,-38.148048400878906,-68.57091522216797,-87.87273406982422,-78.6390151977539,-60.388362884521484,120.96337890625,160.90553283691406,142.1303253173828,124.99736022949219,103.85757446289062,88.81806182861328
93,153,170,68,67,58,37,63,83,203,391,239,115,106,68,71,-32.68458557128906,-36.50037384033203,-20.141878128051758,-84.66073608398438,-83.80513000488281,-71.74215698242188,1.253991961479187,-37.93211364746094,-68.44054412841797,-87.06629180908203,-77.82057189941406,-59.61787033081055,120.25735473632812,159.88414001464844,141.05209350585938,125.40663146972656,102.66168975830078,87.57239532470703
95,150,177,61,60,55,36,67,87,161,399,250,114,106,67,72,-33.29548263549805,-37.294166564941406,-21.00452423095703,-86.1734390258789,-85.13611602783203,-73.0174560546875,1.5365136861801147,-37.712867736816406,-68.29862213134766,-86.3483657836914,-77.10736846923828,-58.933006286621094,119.68599700927734,159.0216522216797,140.17083740234375,125.65739440917969,101.56452178955078,86.39633178710938
96,125,144,60,54,52,37,59,75,162,387,233,102,100,69,81,-33.68009948730469,-37.826725006103516,-21.4869384765625,-87.19131469726562,-85.97618103027344,-73.79893493652344,1.674755334854126,-37.61123275756836,-68.25782775878906,-85.92052459716797,-76.6873550415039,-58.533321380615234,119.29850769042969,158.39077758789062,139.52130126953125,125.90339660644531,100.65829467773438,85.464599609375
94,121,135,55,53,55,36,58,78,161,305,197,86,94,70,79,-33.91542434692383,-38.21989822387695,-21.74046516418457,-87.8036117553711,-86.50200653076172,-74.22394561767578,1.7585102319717407,-37.569610595703125,-68.23365020751953,-85.68102264404297,-76.41854858398438,-58.29793930053711,119.03535461425781,157.98252868652344,139.0756378173828,126.06090545654297,99.87992858886719,84.6884994506836
75,96,120,46,41,44,37,48,75,154,299,172,75,91,74,77,-34.0432014465332,-38.594947814941406,-21.815397262573242,-88.97542572021484,-87.01432800292969,-74.54785919189453,1.8369370698928833,-37.48389434814453,-68.17884826660156,-85.13092803955078,-76.14610290527344,-58.13163757324219,118.68334197998047,157.5332489013672,138.63482666015625,126.89273071289062,98.88227081298828,83.70189666748047
74,95,121,44,36,42,37,57,70,131,269,158,69,89,95,111,-33.9885368347168,-38.61044692993164,-21.643278121948242,-89.6001968383789,-86.98407745361328,-74.39773559570312,1.7649122476577759,-37.50282669067383,-68.2093276977539,-84.89643096923828,-76.24809265136719,-58.30486297607422,118.51101684570312,157.37649536132812,138.54835510253906,127.44789123535156,98.52159881591797,83.41598510742188
67,86,99,44,34,42,39,60,62,125,223,117,66,79,107,115,-33.64933395385742,-38.22901916503906,-20.741662979125977,-89.51399993896484,-86.3989486694336,-73.44824981689453,1.4252066612243652,-37.73481750488281,-68.4106674194336,-85.21540832519531,-76.8321762084961,-59.03877639770508,118.2730941772461,157.2222900390625,138.4505157470703,127.9436264038086,97.94136810302734,83.08863067626953
58,81,94,38,36,46,41,58,52,94,173,85,56,68,101,100,-31.908300399780273,-35.26945877075195,-15.255450248718262,-83.74028778076172,-80.49932861328125,-67.23799133300781,-0.8709750771522522,-39.936431884765625,-69.66710662841797,-90.23886108398438,-81.81896209716797,-63.78761291503906,117.55255889892578,156.62017822265625,138.5646209716797,127.29118347167969,96.37279510498047,81.68820190429688
49,61,80,35,39,45,43,58,42,74,171,80,57,71,114,100,-31.908300399780273,-35.26945877075195,-15.255450248718262,-83.74028778076172,-80.49932861328125,-67.23799133300781,-0.8709750771522522,-39.936431884765625,-69.66710662841797,-90.23886108398438,-81.81896209716797,-63.78761291503906,117.55255889892578,156.62017822265625,138.5646209716797,127.29118347167969,96.37279510498047,81.68820190429688
39,60,67,33,40,48,42,58,41,73,153,82,56,72,133,106,-29.930500030517578,-32.15884780883789,-9.989273071289062,-77.33872985839844,-74.17948913574219,-61.26118087768555,-3.6868605613708496,-42.69706726074219,-71.43135070800781,-95.60334014892578,-87.0167465209961,-68.44576263427734,116.65129852294922,155.5447998046875,138.2202911376953,125.88167572021484,94.93533325195312,80.19580841064453
37,56,54,34,44,54,43,56,53,80,129,77,59,72,142,75,-27.006484985351562,-28.98288345336914,-2.6005141735076904,-67.46221160888672,-63.829383850097656,-52.14595413208008,-4.711587905883789,-42.12443161010742,-69.8979263305664,-99.89289093017578,-91.87296295166016,-72.53621673583984,116.1772689819336,155.16111755371094,140.8381805419922,126.37081909179688,95.39157104492188,80.04753112792969
39,60,54,31,43,66,44,48,49,83,131,73,57,70,141,68,-25.7086238861084,-28.490032196044922,0.30945977568626404,-62.22842788696289,-57.445159912109375,-46.200538635253906,-2.777686595916748,-38.38976287841797,-65.51065826416016,-99.32410430908203,-92.41673278808594,-73.06895446777344,116.42530059814453,156.60060119628906,145.4275665283203,128.76165771484375,97.66883087158203,81.80020141601562
37,55,52,33,39,79,42,48,54,80,134,69,56,70,145,68,-23.802011489868164,-26.24118423461914,4.387233257293701,-56.03751754760742,-50.91265106201172,-40.40039825439453,-1.690653920173645,-35.91303634643555,-62.00072479248047,-99.43360137939453,-93.33636474609375,-73.94708251953125,117.3062973022461,158.41238403320312,149.274658203125,132.14903259277344,100.93196868896484,84.42533111572266
37,52,51,34,34,88,43,49,56,80,133,66,52,69,145,67,-22.082054138183594,-24.255878448486328,7.938482761383057,-50.29545211791992,-44.777828216552734,-34.927249908447266,-1.2689166069030762,-34.11652755737305,-59.07844543457031,-99.84801483154297,-94.5462417602539,-75.2148666381836,117.89363098144531,159.91404724121094,152.6951904296875,135.3095703125,104.10037994384766,86.92936706542969
