Channel_1,Channel_2,Channel_3,Channel_4,Channel_5,Channel_6,Channel_7,Channel_8,Channel_9,Channel_10,Channel_11,Channel_12,Channel_13,Channel_14,Channel_15,Channel_16,Palm_tip_x,Thumb_tip_x,Index_tip_x,Middle_tip_x,Ring_tip_x,Pinky_tip_x,Palm_tip_y,Thumb_tip_y,Index_tip_y,Middle_tip_y,Ring_tip_y,Pinky_tip_y,Palm_tip_z,Thumb_tip_z,Index_tip_z,Middle_tip_z,Ring_tip_z,Pinky_tip_z
38,88,252,257,81,50,59,23,41,147,199,226,111,48,23,22,-27.575218200683594,24.130796432495117,19.665132522583008,-1.0172282457351685,-22.284530639648438,-43.892311096191406,30.53190040588379,4.7538018226623535,-43.38669967651367,-53.972740173339844,-50.243446350097656,-36.3205680847168,137.0891876220703,105.13433074951172,129.9643096923828,115.44667053222656,108.8592529296875,107.25276184082031
37,97,243,260,86,53,55,26,40,184,201,226,111,48,22,20,-26.713153839111328,25.038623809814453,20.54245376586914,-0.4044240117073059,-22.028226852416992,-43.63006591796875,31.13152503967285,5.760384559631348,-42.72167205810547,-53.370323181152344,-50.110477447509766,-35.94550704956055,136.13671875,103.00984954833984,128.58094787597656,114.4554672241211,108.65447998046875,106.8331069946289
37,102,243,265,90,54,46,25,43,193,192,210,106,49,25,20,-26.23599624633789,25.87160301208496,21.024333953857422,-0.01720370352268219,-21.798786163330078,-43.41969299316406,31.408891677856445,6.334428787231445,-42.44926834106445,-53.134681701660156,-50.11672592163086,-35.815677642822266,135.79086303710938,102.3136215209961,128.30084228515625,114.2725830078125,108.809326171875,106.7350082397461
33,88,223,252,90,54,47,25,41,198,212,165,94,45,28,25,-25.864078521728516,27.114553451538086,21.410921096801758,0.391075998544693,-21.44569969177246,-43.16456985473633,31.606048583984375,6.995382785797119,-42.270389556884766,-52.94745635986328,-50.08694839477539,-35.71052169799805,135.61135864257812,102.18601989746094,128.36148071289062,114.22647094726562,108.88079833984375,106.57432556152344
33,92,219,231,90,57,53,26,43,196,210,151,80,42,31,26,-25.231504440307617,29.433155059814453,21.892513275146484,1.0222563743591309,-20.77132797241211,-42.55077362060547,31.885210037231445,7.884317874908447,-42.12730407714844,-52.70170211791992,-49.903472900390625,-35.41058349609375,135.47378540039062,102.71597290039062,128.7025909423828,114.26958465576172,108.8073501586914,106.1495590209961
35,108,255,228,93,63,55,29,44,214,204,135,90,44,33,29,-24.77779197692871,31.108348846435547,22.188901901245117,1.4302161931991577,-20.29324722290039,-42.06973648071289,32.03126907348633,8.363059043884277,-42.09690856933594,-52.58890151977539,-49.75229263305664,-35.180179595947266,135.52410888671875,103.58599853515625,129.05581665039062,114.43002319335938,108.73443603515625,105.83952331542969
35,115,288,214,87,63,49,28,48,212,203,136,92,47,36,31,-24.210540771484375,33.33729934692383,22.48688507080078,1.913885474205017,-19.727819442749023,-41.47879409790039,32.18126678466797,8.853523254394531,-42.14952850341797,-52.51091384887695,-49.63248825073242,-34.9440803527832,135.61077880859375,105.11624145507812,129.69381713867188,114.74600219726562,108.76617431640625,105.51255798339844
32,120,287,229,82,59,52,29,48,201,204,136,94,46,35,32,-23.682004928588867,35.76121520996094,22.780881881713867,2.460513114929199,-19.12508773803711,-40.83281326293945,32.25350570678711,9.373395919799805,-42.23386764526367,-52.478668212890625,-49.579612731933594,-34.8038330078125,135.8128662109375,107.22325897216797,130.4874267578125,115.17396545410156,108.9006118774414,105.29044342041016
30,119,260,179,78,64,56,27,47,196,161,115,91,44,32,29,-22.920881271362305,39.53033447265625,23.093385696411133,3.1999237537384033,-18.241775512695312,-39.83713912963867,32.27914810180664,10.111135482788086,-42.38979721069336,-52.53418731689453,-49.54993438720703,-34.63762664794922,136.27134704589844,111.51251983642578,131.77320861816406,116.05574035644531,109.22064208984375,105.04254913330078
28,113,250,181,80,65,57,27,45,177,148,128,95,41,29,28,-22.522193908691406,42.02349853515625,23.134374618530273,3.518117666244507,-17.769813537597656,-39.213905334472656,32.28453826904297,10.624518394470215,-42.436283111572266,-52.560848236083984,-49.51335144042969,-34.479576110839844,136.63140869140625,115.3969497680664,132.53799438476562,116.69759368896484,109.47151184082031,104.86292266845703
24,95,226,191,76,65,60,26,42,143,150,142,99,39,26,26,-22.29159164428711,43.635231018066406,23.136249542236328,3.760072708129883,-17.481937408447266,-38.75150680541992,32.25157928466797,10.823267936706543,-42.39559555053711,-52.51842498779297,-49.520347595214844,-34.35688018798828,136.94378662109375,119.0813980102539,132.983642578125,117.11636352539062,109.70510864257812,104.69357299804688
24,75,207,218,81,69,63,25,40,104,143,154,100,36,25,25,-21.943052291870117,44.96393966674805,23.206912994384766,4.111303806304932,-17.2186279296875,-38.12551498413086,32.134708404541016,10.416902542114258,-42.28928756713867,-52.46006774902344,-49.56687545776367,-34.1932258605957,137.4817352294922,124.56170654296875,133.34182739257812,117.60931396484375,110.07085418701172,104.5260238647461
25,59,200,262,78,67,65,26,40,105,139,164,100,35,25,26,-21.78971290588379,45.039546966552734,23.266143798828125,4.369352340698242,-17.151546478271484,-37.858402252197266,32.06718826293945,9.827861785888672,-42.21763229370117,-52.28319549560547,-49.55783462524414,-34.09431838989258,137.7829132080078,127.58679962158203,133.49143981933594,117.65225219726562,110.26223754882812,104.50177764892578
27,61,203,268,81,60,60,26,39,100,133,174,100,35,26,26,-21.596330642700195,44.54505920410156,23.3314208984375,4.575669288635254,-17.132722854614258,-37.62919235229492,32.03860092163086,8.940900802612305,-42.16888427734375,-52.128379821777344,-49.522342681884766,-33.97417068481445,137.98207092285156,130.22959899902344,133.59681701660156,117.69221496582031,110.4351806640625,104.53350067138672
27,65,224,266,78,65,70,27,39,128,138,174,100,34,26,27,-21.365694046020508,43.15465545654297,23.347900390625,4.783902168273926,-17.057836532592773,-37.420413970947266,32.009803771972656,7.456292152404785,-42.20162582397461,-51.95148849487305,-49.36457061767578,-33.8525390625,138.127197265625,132.74945068359375,133.75637817382812,117.6922836303711,110.50537109375,104.65777587890625
27,64,208,260,62,62,70,26,40,120,147,169,78,30,26,25,-21.074098587036133,40.80546569824219,23.159793853759766,4.83113956451416,-17.012353897094727,-37.35264587402344,31.968671798706055,5.443206787109375,-42.51429748535156,-51.844383239746094,-49.169498443603516,-33.72052001953125,138.173095703125,133.6734619140625,134.0309600830078,117.5960693359375,110.53910064697266,104.87957763671875
29,60,185,270,64,52,67,26,38,117,146,167,70,29,21,24,-20.889429092407227,39.670379638671875,23.07455825805664,4.774621486663818,-17.07740592956543,-37.37978744506836,31.94038963317871,4.498422622680664,-42.703914642333984,-51.889610290527344,-49.155120849609375,-33.68236541748047,138.14158630371094,133.46969604492188,134.0915985107422,117.5815658569336,110.57870483398438,104.97615051269531
32,65,182,229,69,52,62,26,35,116,144,167,68,30,21,24,-20.29305076599121,35.51578140258789,22.826826095581055,4.464337348937988,-17.175495147705078,-37.49924850463867,31.854087829589844,1.5811150074005127,-43.29701232910156,-52.161006927490234,-49.062442779541016,-33.569950103759766,137.7379913330078,130.4961700439453,133.915283203125,117.39392852783203,110.5125503540039,105.17185974121094
30,60,189,221,65,66,76,26,35,130,145,166,65,29,19,23,-19.842266082763672,32.94715881347656,22.687414169311523,4.182425022125244,-17.379817962646484,-37.68331527709961,31.851396560668945,0.07278786599636078,-43.65613555908203,-52.369144439697266,-49.062889099121094,-33.50212097167969,137.16586303710938,127.0163803100586,133.48179626464844,117.09706115722656,110.41333770751953,105.22792053222656
28,51,150,213,66,62,68,23,34,111,139,162,67,30,18,23,-19.560680389404297,31.08574104309082,22.67198944091797,4.06704044342041,-17.477157592773438,-37.708709716796875,31.817176818847656,-0.807103157043457,-43.87015914916992,-52.520225524902344,-49.10075759887695,-33.4476432800293,136.67990112304688,123.68976593017578,133.03732299804688,116.81270599365234,110.26744079589844,105.10966491699219
30,60,163,202,63,62,64,25,32,114,120,137,58,29,18,23,-19.202951431274414,28.8049259185791,22.90264892578125,4.141906261444092,-17.438234329223633,-37.67491149902344,31.75031852722168,-1.2396717071533203,-44.00728988647461,-52.64238357543945,-49.180335998535156,-33.46437072753906,136.0113067626953,118.25774383544922,132.1881103515625,116.2264633178711,109.93597412109375,104.86058807373047
27,61,176,172,51,62,69,24,33,118,124,121,57,28,21,24,-18.961334228515625,28.04840660095215,23.21345329284668,4.375265598297119,-17.220022201538086,-37.44999313354492,31.69352912902832,-0.9926397204399109,-44.022945404052734,-52.68589401245117,-49.21516036987305,-33.48329162597656,135.61965942382812,115.19660949707031,131.65081787109375,115.83143615722656,109.62311553955078,104.58504486083984
24,60,181,136,49,67,69,26,34,118,187,116,58,28,20,22,-18.737804412841797,27.727867126464844,23.616384506225586,4.722067356109619,-16.85327911376953,-37.121402740478516,31.626628875732422,-0.5543695092201233,-43.99385070800781,-52.71828842163086,-49.23396301269531,-33.531009674072266,135.17149353027344,112.1806640625,131.130615234375,115.42317199707031,109.2117919921875,104.1810073852539
23,65,182,139,57,58,56,28,33,103,194,111,72,31,22,22,-18.14863395690918,27.995498657226562,24.44984245300293,5.417965412139893,-16.13225555419922,-36.50137710571289,31.6561222076416,0.040730979293584824,-43.83858871459961,-52.67070388793945,-49.14118194580078,-33.51633834838867,134.4732208251953,108.97001647949219,130.3130645751953,114.81619262695312,108.5595703125,103.62852478027344
24,63,180,151,60,55,50,29,35,97,180,126,96,32,23,23,-18.14863395690918,27.995498657226562,24.44984245300293,5.417965412139893,-16.13225555419922,-36.50137710571289,31.6561222076416,0.040730979293584824,-43.83858871459961,-52.67070388793945,-49.14118194580078,-33.51633834838867,134.4732208251953,108.97001647949219,130.3130645751953,114.81619262695312,108.5595703125,103.62852478027344
23,66,196,190,67,53,48,29,35,89,184,145,103,33,23,22,-17.142333984375,28.91954803466797,25.698020935058594,6.382233142852783,-15.275611877441406,-35.767601013183594,31.789579391479492,0.4030015766620636,-43.59260940551758,-52.565162658691406,-49.109375,-33.54216003417969,133.58876037597656,106.79195404052734,129.13368225097656,114.0018539428711,108.02320861816406,103.27639770507812
28,77,225,181,76,55,46,29,34,115,222,176,103,33,23,23,-16.138019561767578,31.27373695373535,27.386228561401367,7.751605033874512,-14.028270721435547,-34.816200256347656,31.916908264160156,1.5143287181854248,-43.205810546875,-52.30560302734375,-48.9760856628418,-33.52532958984375,132.73939514160156,104.52286529541016,127.80526733398438,112.85115051269531,107.17509460449219,102.62290954589844
31,84,239,186,74,53,49,29,37,127,193,194,105,37,23,22,-15.526209831237793,33.88854217529297,28.45072364807129,8.61147403717041,-13.158547401428223,-34.129024505615234,32.031227111816406,2.6552984714508057,-42.99754333496094,-52.16225051879883,-48.82215881347656,-33.474430084228516,132.28680419921875,103.71782684326172,127.30229187011719,112.27619171142578,106.564453125,102.16605377197266
32,87,242,198,67,48,60,28,43,141,204,193,97,34,24,24,-14.972307205200195,36.79973220825195,29.332563400268555,9.349056243896484,-12.35225772857666,-33.47919845581055,32.13397216796875,3.9385147094726562,-42.911956787109375,-52.118675231933594,-48.680564880371094,-33.41386413574219,131.8840789794922,103.43333435058594,127.09529113769531,111.88032531738281,105.9683837890625,101.68147277832031
32,88,243,187,68,52,65,28,42,144,210,181,68,31,23,25,-14.421805381774902,41.110984802246094,30.03141212463379,10.018027305603027,-11.617960929870605,-32.922481536865234,32.25856018066406,5.833743095397949,-42.94133377075195,-52.14551544189453,-48.54528045654297,-33.33494567871094,131.5272216796875,103.9079360961914,127.1787338256836,111.67984008789062,105.44142150878906,101.24040222167969
31,81,223,155,73,53,66,27,44,155,214,164,62,36,22,26,-14.217794418334961,43.81521224975586,30.260478973388672,10.217963218688965,-11.34317398071289,-32.7174072265625,32.302947998046875,7.143539905548096,-42.99412155151367,-52.249725341796875,-48.513633728027344,-33.30532455444336,131.4279022216797,104.61759185791016,127.34117126464844,111.78673553466797,105.27975463867188,101.07363891601562
26,71,178,141,65,53,65,26,44,138,169,127,57,36,20,24,-14.132120132446289,46.07636642456055,30.319229125976562,10.296096801757812,-11.234085083007812,-32.625484466552734,32.28370666503906,8.2567138671875,-43.112770080566406,-52.357662200927734,-48.55320739746094,-33.30789566040039,131.44236755371094,105.50296020507812,127.57897186279297,111.88690948486328,105.24995422363281,100.97711181640625
22,63,158,126,65,51,63,24,42,131,140,87,50,32,21,26,-14.050596237182617,48.01592254638672,30.477941513061523,10.537614822387695,-11.062334060668945,-32.487693786621094,32.19585418701172,9.295753479003906,-43.177001953125,-52.3525276184082,-48.589874267578125,-33.306854248046875,131.7158203125,106.54044342041016,127.71327209472656,111.86178588867188,105.27165222167969,100.94178009033203
22,59,154,112,63,49,51,23,37,144,125,89,49,35,18,25,-14.084366798400879,50.70942687988281,30.549182891845703,10.82729434967041,-10.777385711669922,-32.17932891845703,32.01026916503906,10.693901062011719,-43.29467010498047,-52.352210998535156,-48.59151077270508,-33.22942352294922,132.53482055664062,109.2840805053711,128.3935546875,112.23404693603516,105.46047973632812,100.90018463134766
23,62,170,111,57,51,48,24,37,151,158,86,56,38,18,24,-14.093314170837402,52.04251480102539,30.266460418701172,10.804879188537598,-10.702409744262695,-31.975427627563477,31.892919540405273,10.994709014892578,-43.56007766723633,-52.46809387207031,-48.60025405883789,-33.10326385498047,133.134765625,111.65450286865234,129.24520874023438,112.79269409179688,105.70219421386719,100.82144927978516
25,62,170,119,44,48,47,24,40,149,170,87,52,36,19,28,-14.245193481445312,52.888511657714844,29.675067901611328,10.55224895477295,-10.79309368133545,-31.842309951782227,31.672029495239258,10.764618873596191,-43.95100021362305,-52.68854522705078,-48.654701232910156,-32.96320343017578,134.00270080566406,114.72502136230469,130.26736450195312,113.54276275634766,106.06482696533203,100.76463317871094
24,57,166,120,48,43,42,24,42,160,171,101,58,37,20,27,-14.782636642456055,53.39701843261719,28.575334548950195,9.897504806518555,-11.337456703186035,-31.954364776611328,31.302230834960938,9.943530082702637,-44.400150299072266,-53.00503158569336,-48.87677764892578,-32.89333724975586,135.16766357421875,119.74203491210938,131.4855194091797,114.6343002319336,106.7769775390625,100.82567596435547
25,56,159,134,51,48,49,23,40,157,177,105,61,35,21,24,-15.185480117797852,53.08753967285156,27.8535099029541,9.293869018554688,-11.940884590148926,-32.26268005371094,31.113731384277344,9.078117370605469,-44.56981658935547,-53.181156158447266,-49.01747512817383,-32.85323715209961,135.82156372070312,122.80257415771484,131.95626831054688,115.25569152832031,107.27393341064453,100.99826049804688
24,52,145,142,58,47,47,24,39,133,163,102,60,35,20,23,-15.601445198059082,52.33474349975586,27.168724060058594,8.725854873657227,-12.605514526367188,-32.6558723449707,30.9855899810791,8.074603080749512,-44.67839431762695,-53.23446273803711,-49.1431999206543,-32.834449768066406,136.29603576660156,125.77664947509766,132.3521270751953,115.70054626464844,107.7342758178711,101.1930160522461
23,50,122,141,54,42,50,22,38,126,134,95,49,32,22,24,-16.13182830810547,50.30013656616211,26.24836540222168,7.847850322723389,-13.622557640075684,-33.355140686035156,30.859580993652344,6.217920303344727,-44.81697463989258,-53.32783126831055,-49.255516052246094,-32.8158073425293,136.82394409179688,129.28421020507812,132.81175231933594,116.26052856445312,108.27908325195312,101.55703735351562
22,49,129,118,57,47,52,24,32,120,102,85,49,31,21,20,-16.44770622253418,48.4260368347168,25.678955078125,7.349375247955322,-14.256190299987793,-33.886497497558594,30.809629440307617,4.813293933868408,-44.88560485839844,-53.30501937866211,-49.27546310424805,-32.810768127441406,137.08091735839844,130.8879852294922,133.001220703125,116.47982025146484,108.5464859008789,101.8271713256836
26,54,158,144,64,55,60,27,28,97,109,88,51,30,21,21,-16.839691162109375,46.40896987915039,25.053630828857422,6.738763332366943,-14.927785873413086,-34.512733459472656,30.7672176361084,3.491486072540283,-44.94824981689453,-53.33055114746094,-49.27943801879883,-32.8304557800293,137.2709503173828,131.94302368164062,133.1500244140625,116.73632049560547,108.79884338378906,102.13468170166016
26,50,142,131,68,59,57,30,29,93,102,89,53,31,20,23,-17.19228744506836,42.592857360839844,24.327665328979492,6.00812292098999,-15.719563484191895,-35.428131103515625,30.6851749420166,1.1850543022155762,-45.10722351074219,-53.25407028198242,-49.178558349609375,-32.85110092163086,137.42367553710938,131.9239044189453,133.02418518066406,116.61248779296875,108.87481689453125,102.57005310058594
28,51,170,143,75,65,66,33,29,99,110,96,57,31,22,25,-17.596464157104492,39.27241134643555,23.615076065063477,5.253529071807861,-16.438291549682617,-36.21919250488281,30.638729095458984,-0.4680136740207672,-45.29212188720703,-53.283729553222656,-49.133304595947266,-32.92219161987305,137.33702087402344,130.6614227294922,132.97491455078125,116.54145050048828,108.91837310791016,102.92581176757812
27,51,167,146,78,67,70,33,26,83,101,106,61,29,22,24,-18.297561645507812,34.02396774291992,22.49195098876953,4.070491313934326,-17.566240310668945,-37.338539123535156,30.599180221557617,-2.5180883407592773,-45.55894470214844,-53.34394073486328,-49.09794998168945,-32.95183181762695,136.95635986328125,127.08961486816406,132.7172088623047,116.30584716796875,108.91192626953125,103.24272155761719
26,48,163,161,76,66,69,29,22,70,96,106,60,28,23,23,-18.700809478759766,30.65781593322754,21.85038948059082,3.4279568195343018,-18.155508041381836,-37.876068115234375,30.55998420715332,-3.469918727874756,-45.73154067993164,-53.408897399902344,-49.108741760253906,-32.95558166503906,136.68727111816406,124.23627471923828,132.55841064453125,116.15418243408203,108.8789291381836,103.3002700805664
24,45,151,147,72,65,65,28,22,67,86,91,52,26,23,23,-18.957181930541992,27.92411994934082,21.457666397094727,3.0583229064941406,-18.492969512939453,-38.21585464477539,30.530012130737305,-4.023805141448975,-45.83344268798828,-53.411746978759766,-49.08543014526367,-32.95100021362305,136.50521850585938,121.71937561035156,132.4268341064453,115.98695373535156,108.79573059082031,103.30492401123047
24,42,158,149,71,67,68,27,23,86,97,98,46,26,24,22,-19.213546752929688,24.75542449951172,21.110021591186523,2.765759229660034,-18.853063583374023,-38.5383415222168,30.425832748413086,-4.327143669128418,-45.95938491821289,-53.403072357177734,-49.150535583496094,-32.9996223449707,136.23899841308594,118.22095489501953,132.14573669433594,115.63896942138672,108.64533233642578,103.18211364746094
22,43,134,127,60,64,63,21,28,78,88,91,42,24,24,24,-19.354248046875,23.113771438598633,20.978261947631836,2.624300241470337,-18.974166870117188,-38.69023132324219,30.38167381286621,-4.245475769042969,-45.978736877441406,-53.39609146118164,-49.12639236450195,-33.00334930419922,136.03662109375,116.00422668457031,131.89840698242188,115.41825866699219,108.45745849609375,103.04523468017578
23,43,141,127,60,63,58,22,29,79,84,86,44,27,25,23,-19.505842208862305,21.914730072021484,20.914724349975586,2.4930779933929443,-19.09823989868164,-38.81758499145508,30.35181427001953,-3.984611749649048,-45.95058822631836,-53.39815902709961,-49.13506317138672,-33.019813537597656,135.6791229248047,113.6662368774414,131.4880828857422,115.111083984375,108.21456909179688,102.82231140136719
23,42,145,151,65,64,61,21,30,82,121,138,68,28,23,23,-19.527708053588867,20.441682815551758,21.14902114868164,2.3119142055511475,-19.34658432006836,-38.94627380371094,30.27251625061035,-3.6599605083465576,-45.90400314331055,-53.50096893310547,-49.271427154541016,-33.10494613647461,134.79327392578125,109.66019439697266,130.04966735839844,114.18344116210938,107.70735931396484,102.56146240234375
26,46,150,161,63,61,59,26,30,83,126,141,75,34,24,24,-19.478193283081055,20.503400802612305,21.273595809936523,2.3735876083374023,-19.281566619873047,-38.884849548339844,30.257043838500977,-3.346825122833252,-45.88197708129883,-53.49088668823242,-49.24993896484375,-33.10569381713867,134.6217803955078,108.40277099609375,129.7478485107422,113.94596099853516,107.50916290283203,102.45173645019531
29,62,195,183,62,49,56,26,30,108,121,139,76,34,21,24,-19.21076202392578,20.50019073486328,21.73579216003418,2.534602642059326,-19.226648330688477,-38.96009063720703,30.298898696899414,-3.0748071670532227,-45.77043533325195,-53.46597671508789,-49.27302932739258,-33.2080192565918,133.85975646972656,106.41000366210938,128.63156127929688,113.12770080566406,106.99676513671875,102.24835968017578
29,64,223,215,66,47,56,27,33,115,156,149,91,37,21,21,-18.657554626464844,22.460182189941406,22.68498992919922,3.307786703109741,-18.54172134399414,-38.386966705322266,30.34930992126465,-2.385324478149414,-45.6601448059082,-53.351844787597656,-49.178741455078125,-33.17768096923828,133.18182373046875,104.86676788330078,127.91551971435547,112.3000259399414,106.19242095947266,101.5836410522461
28,77,269,215,62,52,65,26,36,132,164,145,89,34,21,23,-18.467458724975586,23.609294891357422,23.04330062866211,3.5796844959259033,-18.282203674316406,-38.18434524536133,30.401901245117188,-2.06707763671875,-45.5750617980957,-53.29643630981445,-49.1302604675293,-33.16131591796875,133.00979614257812,104.61495208740234,127.76673126220703,112.12698364257812,106.01602935791016,101.45267486572266
30,83,279,196,57,52,65,28,37,133,144,104,81,35,23,22,-17.84427833557129,27.956954956054688,24.080297470092773,4.349452018737793,-17.53179359436035,-37.58219528198242,30.611083984375,-0.9977123737335205,-45.34562301635742,-53.12697982788086,-48.94743728637695,-33.064208984375,132.6107635498047,104.62358093261719,127.49949645996094,111.7031021118164,105.6083755493164,101.220947265625
29,90,288,197,62,50,65,21,41,144,149,103,80,33,22,22,-17.326263427734375,34.17619323730469,24.861995697021484,4.925209999084473,-16.898983001708984,-37.14149475097656,30.789987564086914,0.6055499315261841,-45.245689392089844,-53.05086135864258,-48.77973175048828,-32.99026870727539,132.3079376220703,105.94544219970703,127.43603515625,111.45462799072266,105.24945831298828,101.04418182373047
26,86,269,178,62,61,65,20,41,120,151,98,81,35,24,22,-17.17584800720215,36.10771179199219,25.084964752197266,5.063844203948975,-16.718360900878906,-37.039974212646484,30.847341537475586,1.2582424879074097,-45.23739242553711,-53.061988830566406,-48.72557067871094,-32.96765899658203,132.228515625,106.34227752685547,127.45367431640625,111.40512084960938,105.13343048095703,101.0079345703125
27,83,249,134,58,61,65,19,35,121,115,79,62,31,23,22,-16.80712890625,41.09468460083008,25.466854095458984,5.438086032867432,-16.328763961791992,-36.8911247253418,30.974645614624023,3.2364661693573,-45.34290313720703,-53.04622268676758,-48.634098052978516,-32.89868927001953,132.1077880859375,107.59244537353516,127.72891235351562,111.24088287353516,104.9551010131836,100.91010284423828
29,77,200,144,64,64,64,19,37,113,103,98,64,31,23,21,-16.561992645263672,44.497779846191406,25.693069458007812,5.702162742614746,-16.068653106689453,-36.798500061035156,30.970369338989258,4.735299587249756,-45.450462341308594,-53.08942794799805,-48.642433166503906,-32.89922332763672,132.17822265625,108.71620178222656,127.81629943847656,111.18182373046875,104.91735076904297,100.89420318603516
27,73,195,134,64,62,63,19,37,119,98,102,51,28,21,21,-16.477136611938477,45.47170639038086,25.808366775512695,5.831883430480957,-15.958755493164062,-36.70933532714844,30.931962966918945,5.167476654052734,-45.477840423583984,-53.10623550415039,-48.66200256347656,-32.91157913208008,132.27296447753906,109.10472106933594,127.81143188476562,111.17254638671875,104.92338562011719,100.91129302978516
25,64,176,122,66,61,63,21,35,109,95,109,52,27,23,20,-16.31458282470703,47.84115219116211,26.076143264770508,6.215900897979736,-15.605749130249023,-36.40174102783203,30.720504760742188,6.162310600280762,-45.61677932739258,-53.1674919128418,-48.745479583740234,-32.95762634277344,132.8217010498047,110.75981903076172,128.05462646484375,111.30879211425781,105.03993225097656,100.95710754394531
24,61,171,133,67,64,76,25,35,113,89,107,55,29,24,20,-16.30316162109375,49.58979415893555,25.862449645996094,6.360689163208008,-15.370109558105469,-36.10184097290039,30.391128540039062,6.4971747398376465,-46.005409240722656,-53.38756561279297,-48.866546630859375,-32.947296142578125,133.939453125,113.74711608886719,129.1173858642578,112.1347885131836,105.53353118896484,101.12035369873047
23,65,172,143,67,65,81,27,35,113,123,119,62,30,23,20,-16.27825355529785,49.9403076171875,25.727380752563477,6.370368480682373,-15.31010627746582,-35.986183166503906,30.256698608398438,6.36533784866333,-46.16645431518555,-53.4855842590332,-48.90315628051758,-32.91044235229492,134.39520263671875,114.8546371459961,129.45999145507812,112.44840240478516,105.7069091796875,101.15276336669922
22,61,174,149,71,58,75,29,31,117,143,112,67,33,24,21,-16.493633270263672,50.47684097290039,25.165451049804688,6.214686870574951,-15.338747024536133,-35.78968811035156,29.95973777770996,5.880812168121338,-46.46306228637695,-53.71501541137695,-49.03211975097656,-32.84913635253906,135.44259643554688,118.06287384033203,130.44168090820312,113.39864349365234,106.26063537597656,101.2144546508789
24,60,151,156,74,59,73,29,32,114,139,105,78,41,28,20,-16.804668426513672,50.51899337768555,24.673206329345703,5.906084060668945,-15.555603981018066,-35.76600646972656,29.789506912231445,5.290490627288818,-46.51051712036133,-53.87209701538086,-49.11695861816406,-32.77253341674805,136.297119140625,121.16370391845703,131.09609985351562,114.28839111328125,106.84626007080078,101.39443969726562
23,62,140,153,66,62,81,30,30,116,150,108,78,39,27,21,-16.87166404724121,50.41769790649414,24.550756454467773,5.803535461425781,-15.641843795776367,-35.774627685546875,29.773822784423828,5.009353160858154,-46.4865837097168,-53.905250549316406,-49.142303466796875,-32.750938415527344,136.49118041992188,122.1969223022461,131.27806091308594,114.57067108154297,107.05469512939453,101.47108459472656
24,60,136,140,63,51,68,27,29,114,152,108,75,36,25,21,-17.14931869506836,49.620914459228516,24.07181739807129,5.410704612731934,-16.017807006835938,-35.89388656616211,29.704214096069336,3.929297924041748,-46.48069763183594,-54.01797103881836,-49.25107192993164,-32.7102165222168,137.11961364746094,125.28157043457031,131.9566650390625,115.44200897216797,107.75650787353516,101.7931137084961
23,56,151,136,60,52,62,25,33,112,129,101,77,36,27,21,-17.40489959716797,48.709754943847656,23.699302673339844,5.072953701019287,-16.35498809814453,-36.0826416015625,29.620634078979492,3.071568727493286,-46.49763488769531,-54.109622955322266,-49.341312408447266,-32.71125793457031,137.623291015625,127.27611541748047,132.4130096435547,116.04317474365234,108.26587677001953,102.08453369140625
22,54,142,121,58,57,63,24,30,103,109,99,72,38,28,19,-17.68743324279785,47.33732604980469,23.317554473876953,4.696532249450684,-16.77066993713379,-36.38093185424805,29.566843032836914,2.111603021621704,-46.497100830078125,-54.14796829223633,-49.399322509765625,-32.6997184753418,138.13047790527344,128.89688110351562,132.83035278320312,116.56025695800781,108.77436065673828,102.45899200439453
24,52,149,112,55,55,62,26,31,98,139,103,62,33,25,20,-17.87318992614746,44.33451461791992,22.723060607910156,4.145029544830322,-17.46268653869629,-36.90401077270508,29.364784240722656,-0.1390296369791031,-46.75571060180664,-54.2685661315918,-49.576332092285156,-32.734596252441406,138.89097595214844,130.55548095703125,133.39132690429688,117.11624145507812,109.49766540527344,103.07487487792969
24,43,160,141,60,56,55,25,29,90,137,87,55,33,23,18,-18.001800537109375,41.638797760009766,22.55208969116211,3.8767337799072266,-17.771696090698242,-37.18626403808594,29.293006896972656,-1.6355352401733398,-46.77647018432617,-54.31459045410156,-49.64418029785156,-32.78992462158203,139.1582489013672,130.40187072753906,133.53070068359375,117.35430145263672,109.80944061279297,103.4013671875
24,36,147,136,58,57,72,24,30,76,134,81,52,34,23,19,-18.082040786743164,38.339256286621094,22.463193893432617,3.731569766998291,-17.98859214782715,-37.40936279296875,29.274152755737305,-3.1137473583221436,-46.767024993896484,-54.28977966308594,-49.677764892578125,-32.83882522583008,139.26351928710938,129.15689086914062,133.58836364746094,117.44622802734375,110.01922607421875,103.65470123291016
23,38,123,126,62,60,71,25,27,72,135,76,42,35,21,20,-18.34693717956543,33.317806243896484,22.14461326599121,3.2966063022613525,-18.40975570678711,-37.94627380371094,29.419265747070312,-4.6215009689331055,-46.65208053588867,-54.19790267944336,-49.57854080200195,-32.850975036621094,139.29855346679688,126.19746398925781,133.7769012451172,117.74471282958984,110.38233947753906,104.16545867919922
24,42,122,128,57,62,75,26,32,67,130,69,41,32,23,23,-18.484546661376953,29.87576675415039,21.970806121826172,3.097139358520508,-18.635412216186523,-38.19866943359375,29.485897064208984,-5.166754245758057,-46.61366271972656,-54.1226921081543,-49.538246154785156,-32.8464469909668,139.311279296875,123.68811798095703,133.85108947753906,117.82044219970703,110.55821228027344,104.413818359375
24,50,124,128,56,60,77,23,31,68,103,57,39,28,21,24,-18.59685707092285,26.885801315307617,21.84982681274414,2.953528642654419,-18.7989444732666,-38.39674377441406,29.526174545288086,-5.332694053649902,-46.57943344116211,-54.069889068603516,-49.51218795776367,-32.85820007324219,139.32040405273438,121.30204772949219,133.8845672607422,117.8713150024414,110.6895751953125,104.61517333984375
26,55,118,102,62,60,76,24,34,70,93,61,46,32,22,24,-18.67194938659668,23.48125457763672,21.875431060791016,2.901427745819092,-18.858165740966797,-38.50865936279297,29.56061553955078,-5.214248180389404,-46.47526550292969,-53.9823112487793,-49.449989318847656,-32.85018539428711,139.3336639404297,118.07381439208984,133.80258178710938,117.86344146728516,110.7586441040039,104.78160095214844
26,59,130,134,65,60,61,24,37,76,100,89,60,35,25,23,-18.67729377746582,22.191198348999023,21.954425811767578,2.9174020290374756,-18.822742462158203,-38.51203918457031,29.578319549560547,-5.019077301025391,-46.40410232543945,-53.9340705871582,-49.387638092041016,-32.835025787353516,139.3305206298828,116.406494140625,133.72293090820312,117.8375015258789,110.72970581054688,104.84121704101562
27,57,131,145,64,52,60,24,39,82,101,148,85,36,26,22,-18.640714645385742,21.464252471923828,22.06256675720215,2.92278790473938,-18.812376022338867,-38.57606506347656,29.623653411865234,-4.745420455932617,-46.31576156616211,-53.88194274902344,-49.311927795410156,-32.82197570800781,139.29551696777344,114.90647888183594,133.5753936767578,117.78903198242188,110.70166778564453,104.94935607910156
26,56,137,143,63,44,56,24,40,95,141,156,91,37,23,20,-18.354658126831055,21.199378967285156,22.405635833740234,3.0148873329162598,-18.78587532043457,-38.644527435302734,29.75224494934082,-4.431821346282959,-46.14912033081055,-53.78056716918945,-49.21095275878906,-32.775352478027344,139.07720947265625,113.36649322509766,133.03848266601562,117.5030288696289,110.62428283691406,105.12384796142578
27,62,179,166,63,44,52,25,46,130,151,163,93,38,26,18,-18.15492820739746,21.457439422607422,22.798988342285156,3.206490993499756,-18.66777992248535,-38.59498977661133,29.85213851928711,-4.039654731750488,-45.95476531982422,-53.66571044921875,-49.12228012084961,-32.7344856262207,138.8876495361328,112.32621765136719,132.5796661376953,117.23689270019531,110.49713134765625,105.1806411743164
25,60,186,157,51,47,53,25,47,137,149,164,93,38,26,20,-17.804903030395508,22.704599380493164,23.565574645996094,3.656364917755127,-18.30544090270996,-38.37919616699219,30.000764846801758,-3.196051836013794,-45.66392517089844,-53.48927307128906,-48.984962463378906,-32.69707489013672,138.5794219970703,111.11063385009766,132.02674865722656,116.83935546875,110.22682189941406,105.17513275146484
24,61,202,133,54,49,51,28,45,137,144,162,95,37,25,20,-17.399288177490234,24.60285186767578,24.343442916870117,4.110511779785156,-17.871091842651367,-38.09743118286133,30.109477996826172,-2.439645528793335,-45.4941520690918,-53.38312911987305,-48.85739517211914,-32.66748046875,138.3799285888672,110.41211700439453,131.71810913085938,116.54387664794922,109.97787475585938,105.20034790039062
26,64,241,130,59,54,58,27,49,151,158,115,74,36,23,20,-16.891490936279297,30.088504791259766,25.336688995361328,4.708047389984131,-17.14788246154785,-37.54899215698242,30.25851058959961,-1.039682149887085,-45.33726501464844,-53.341827392578125,-48.66947937011719,-32.59374237060547,138.13880920410156,111.0072021484375,131.60336303710938,116.33518981933594,109.55223083496094,105.03678894042969
26,64,240,142,60,58,54,26,47,145,160,113,70,33,23,21,-16.463937759399414,34.216339111328125,25.96735954284668,5.1183295249938965,-16.63921546936035,-37.16759490966797,30.428537368774414,0.05032166838645935,-45.23509216308594,-53.29255294799805,-48.504940032958984,-32.502323150634766,137.96450805664062,111.76995086669922,131.6071319580078,116.24658203125,109.32720947265625,104.9799575805664
23,56,207,118,64,61,56,25,43,126,155,112,72,37,21,21,-16.16568946838379,38.31904220581055,26.397525787353516,5.4388017654418945,-16.30508041381836,-36.84496307373047,30.53946876525879,1.1876742839813232,-45.20261764526367,-53.28489303588867,-48.442840576171875,-32.45375061035156,137.90150451660156,112.8964614868164,131.74684143066406,116.27792358398438,109.27409362792969,104.9923095703125
27,57,203,117,64,58,54,25,41,128,161,130,78,36,20,20,-15.929608345031738,43.63662338256836,26.73751449584961,5.769477844238281,-15.976259231567383,-36.557159423828125,30.588579177856445,2.8662827014923096,-45.21231460571289,-53.276336669921875,-48.40451431274414,-32.419612884521484,138.01943969726562,114.91802978515625,131.95684814453125,116.332763671875,109.28715515136719,105.04852294921875
26,54,183,130,65,55,55,23,42,125,163,119,66,31,20,21,-15.67387580871582,47.13939666748047,27.217531204223633,6.286839485168457,-15.533467292785645,-36.14649200439453,30.601408004760742,4.345066547393799,-45.07426452636719,-53.13317108154297,-48.308021545410156,-32.311424255371094,138.62815856933594,116.99567413330078,132.21385192871094,116.54017639160156,109.54407501220703,105.31346893310547
25,53,145,147,60,55,63,23,35,129,157,119,70,35,22,22,-15.586934089660645,48.128543853759766,27.38337516784668,6.510551452636719,-15.329504013061523,-35.95789337158203,30.545618057250977,4.770580768585205,-45.06692123413086,-53.079566955566406,-48.26013946533203,-32.24972915649414,139.05682373046875,117.99125671386719,132.4270782470703,116.6665267944336,109.65723419189453,105.40928649902344
28,56,156,150,67,47,65,25,40,132,125,113,69,35,23,22,-15.542296409606934,50.30952453613281,27.511205673217773,6.958704948425293,-14.878549575805664,-35.440093994140625,30.413000106811523,5.67414665222168,-45.11245346069336,-52.91239929199219,-48.08095932006836,-31.942007064819336,140.50607299804688,121.72887420654297,133.56910705566406,117.37690734863281,110.17655181884766,105.6573257446289
28,61,168,150,64,49,64,26,36,117,117,107,65,33,24,23,-15.594386100769043,51.324398040771484,27.376249313354492,7.05846643447876,-14.720539093017578,-35.20161819458008,30.36286735534668,6.00503396987915,-45.206172943115234,-52.903438568115234,-48.035316467285156,-31.81255340576172,141.2216796875,124.5063247680664,134.4492645263672,118.01032257080078,110.60302734375,105.8397216796875
26,57,161,154,74,52,63,26,35,109,125,85,54,30,24,23,-15.7271089553833,51.97031021118164,27.093833923339844,7.009812831878662,-14.695144653320312,-35.04219436645508,30.274311065673828,6.096044063568115,-45.35972595214844,-52.991573333740234,-48.08573532104492,-31.760013580322266,141.87315368652344,127.5413589477539,135.3620147705078,118.73249816894531,111.10250091552734,106.04264068603516
27,60,167,153,74,53,78,26,36,123,127,87,60,32,24,22,-16.050506591796875,51.807655334472656,26.5831298828125,6.783442974090576,-14.80079460144043,-34.968170166015625,30.202964782714844,5.71298360824585,-45.43510437011719,-53.12337875366211,-48.17993927001953,-31.79316520690918,142.70449829101562,131.76168823242188,136.58465576171875,119.9066162109375,111.9478530883789,106.53929901123047
27,68,163,141,72,51,66,28,37,103,120,94,65,34,23,21,-16.21921730041504,51.07322311401367,26.203218460083008,6.559226989746094,-14.948708534240723,-34.99113845825195,30.1702938079834,5.0405497550964355,-45.506126403808594,-53.21314239501953,-48.23104476928711,-31.807321548461914,143.29014587402344,134.53369140625,137.3883056640625,120.69646453857422,112.56228637695312,106.98051452636719
25,62,144,123,65,52,65,27,31,102,127,94,65,35,21,22,-16.39225959777832,49.87043380737305,25.83481216430664,6.325483798980713,-15.157849311828613,-35.069618225097656,30.153432846069336,4.221459865570068,-45.5365104675293,-53.280723571777344,-48.30927276611328,-31.856243133544922,143.83837890625,137.24285888671875,138.13827514648438,121.4862060546875,113.2560043334961,107.51444244384766
26,56,129,127,65,55,78,29,30,108,134,103,69,36,22,21,-16.598098754882812,47.59360122680664,25.326444625854492,5.909896373748779,-15.582159996032715,-35.3305549621582,30.100933074951172,2.886441469192505,-45.62895584106445,-53.407283782958984,-48.439395904541016,-31.938886642456055,144.6328582763672,140.60186767578125,139.05393981933594,122.52533721923828,114.2369384765625,108.36123657226562
23,55,121,123,52,52,78,27,29,107,108,98,70,38,22,20,-16.750741958618164,45.81599426269531,24.935867309570312,5.602438449859619,-15.930697441101074,-35.5607795715332,29.993675231933594,1.8402525186538696,-45.820335388183594,-53.54422378540039,-48.594451904296875,-32.051979064941406,145.19529724121094,142.4922332763672,139.75955200195312,123.191162109375,114.91535949707031,108.96519470214844
24,51,112,106,43,53,64,28,26,90,103,96,63,38,21,21,-16.909133911132812,43.91094970703125,24.668100357055664,5.325327396392822,-16.223115921020508,-35.79018020629883,29.903522491455078,0.8418403267860413,-45.91102981567383,-53.67034149169922,-48.737518310546875,-32.180084228515625,145.60105895996094,143.71600341796875,140.21395874023438,123.7270278930664,115.47518157958984,109.47908782958984
22,36,90,93,46,54,65,26,24,74,92,79,51,32,22,22,-17.0816707611084,40.06690216064453,24.369388580322266,5.055535793304443,-16.577760696411133,-36.11127853393555,29.8479061126709,-0.9356604814529419,-46.001766204833984,-53.70592498779297,-48.87737274169922,-32.33203125,145.95362854003906,143.5459747314453,140.66262817382812,124.14957427978516,116.09003448486328,110.1175765991211
21,38,91,95,48,56,69,25,21,65,75,91,64,31,23,22,-17.17691993713379,37.25157165527344,24.21509552001953,4.935049057006836,-16.72151756286621,-36.30202865600586,29.871440887451172,-2.102961778640747,-46.01118850708008,-53.664772033691406,-48.891841888427734,-32.401546478271484,146.04393005371094,142.1622314453125,140.84312438964844,124.29569244384766,116.37665557861328,110.47698211669922
21,35,91,96,54,51,55,22,21,49,66,132,83,31,25,21,-17.257545471191406,34.53349304199219,24.07678985595703,4.829110145568848,-16.849552154541016,-36.45186996459961,29.92266082763672,-3.1370480060577393,-45.99839782714844,-53.60503387451172,-48.87866973876953,-32.430423736572266,146.06100463867188,139.90052795410156,140.93789672851562,124.37551879882812,116.58311462402344,110.76438903808594
23,37,103,92,54,46,54,23,23,46,95,140,87,30,28,21,-17.368606567382812,30.90172576904297,23.916963577270508,4.696101665496826,-17.007925033569336,-36.67942428588867,29.995981216430664,-4.134205341339111,-45.9658203125,-53.52162551879883,-48.84941482543945,-32.47606658935547,146.0606689453125,135.4840545654297,141.00210571289062,124.45147705078125,116.83197021484375,111.15475463867188
25,37,115,101,58,57,66,27,25,62,103,158,90,34,30,22,-17.394563674926758,29.39904022216797,23.914024353027344,4.652683734893799,-17.112743377685547,-36.84037399291992,30.063018798828125,-4.277540683746338,-45.90204620361328,-53.44755554199219,-48.820709228515625,-32.484092712402344,146.02749633789062,132.8115234375,140.91357421875,124.42547607421875,116.94756317138672,111.37505340576172
26,46,151,171,70,65,70,32,30,79,119,172,101,36,30,20,-17.382652282714844,28.431133270263672,24.022563934326172,4.639062404632568,-17.180910110473633,-37.01518630981445,30.151647567749023,-3.9987239837646484,-45.81352615356445,-53.36544418334961,-48.793212890625,-32.503517150878906,145.92056274414062,129.72027587890625,140.7555694580078,124.33856964111328,117.05223846435547,111.60443115234375
25,52,155,174,68,63,66,32,33,78,124,167,92,37,31,19,-17.385202407836914,28.26487159729004,24.246501922607422,4.717929840087891,-17.150577545166016,-37.126380920410156,30.213632583618164,-3.4014244079589844,-45.72629928588867,-53.302371978759766,-48.806922912597656,-32.60740661621094,145.75440979003906,126.33490753173828,140.66143798828125,124.24681091308594,117.14332580566406,111.8375473022461
23,51,153,176,59,64,71,31,34,83,135,136,73,34,28,20,-17.227262496948242,28.25931167602539,24.832786560058594,5.008941173553467,-16.98430824279785,-37.18415832519531,30.319339752197266,-2.599125385284424,-45.516780853271484,-53.16433334350586,-48.805477142333984,-32.75469207763672,145.37826538085938,122.39836883544922,140.1841583251953,123.86222839355469,117.11650085449219,112.10796356201172
22,54,159,185,61,66,73,32,33,87,119,147,70,33,25,20,-16.882484436035156,28.453990936279297,25.469619750976562,5.372077941894531,-16.755157470703125,-37.14636993408203,30.468765258789062,-2.1850242614746094,-45.28901290893555,-53.02061080932617,-48.768653869628906,-32.84358596801758,144.92947387695312,120.53947448730469,139.55453491210938,123.41117095947266,117.00341796875,112.2980728149414
21,54,154,185,60,61,64,29,34,88,120,141,72,31,23,19,-16.397724151611328,28.774742126464844,26.263687133789062,5.86699914932251,-16.397077560424805,-36.99677658081055,30.712369918823242,-1.7322113513946533,-44.97026824951172,-52.80573272705078,-48.66047286987305,-32.86439514160156,144.29190063476562,118.69602966308594,138.75738525390625,122.8181381225586,116.76478576660156,112.37468719482422
22,48,115,125,50,57,63,26,33,81,118,133,71,32,21,19,-15.831109046936035,30.09137535095215,27.29208755493164,6.66011381149292,-15.722990036010742,-36.593746185302734,31.014575958251953,-0.9252417087554932,-44.584693908691406,-52.512451171875,-48.498809814453125,-32.85646057128906,143.4116668701172,116.56224822998047,137.9707489013672,122.047119140625,116.28577423095703,112.1386489868164
25,44,144,149,55,62,66,28,30,91,136,137,79,34,18,19,-15.400601387023926,31.86932945251465,27.97768783569336,7.191040992736816,-15.198201179504395,-36.23743438720703,31.196617126464844,-0.23034131526947021,-44.38510513305664,-52.403568267822266,-48.39909362792969,-32.8647346496582,142.82174682617188,115.49423217773438,137.52867126464844,121.62692260742188,115.93115234375,111.95047760009766
27,47,160,141,61,61,69,30,34,107,128,142,79,38,20,19,-15.075871467590332,34.212425231933594,28.465932846069336,7.627978801727295,-14.726778984069824,-35.92116165161133,31.283174514770508,0.5860008001327515,-44.36210632324219,-52.39446258544922,-48.3506965637207,-32.90151596069336,142.38487243652344,115.06639099121094,137.41900634765625,121.34848022460938,115.59237670898438,111.71599578857422
27,53,179,129,67,72,71,30,36,114,133,140,82,41,20,20,-14.55679702758789,37.95758819580078,29.15554428100586,8.19583797454834,-14.06175422668457,-35.482913970947266,31.433969497680664,2.0448007583618164,-44.338626861572266,-52.43265914916992,-48.234195709228516,-32.87845230102539,141.87240600585938,114.82395935058594,137.3048553466797,121.08561706542969,115.13662719726562,111.42233276367188
28,55,183,157,67,67,67,31,37,118,128,132,80,41,21,19,-14.33221435546875,40.400142669677734,29.41591453552246,8.488055229187012,-13.753717422485352,-35.256744384765625,31.487762451171875,2.9948856830596924,-44.38153076171875,-52.45185470581055,-48.197837829589844,-32.86011505126953,141.71856689453125,115.1277847290039,137.40277099609375,121.011962890625,114.96045684814453,111.2793960571289
28,59,202,161,66,66,66,31,38,123,121,123,66,37,22,21,-14.197124481201172,42.60449981689453,29.504728317260742,8.630437850952148,-13.544342041015625,-35.1127815246582,31.512685775756836,3.860776424407959,-44.46992874145508,-52.52082443237305,-48.169158935546875,-32.8370246887207,141.67623901367188,115.69754791259766,137.6013946533203,121.0805892944336,114.87310028076172,111.19682312011719
26,58,182,130,64,62,63,30,39,123,128,125,61,38,23,21,-14.028560638427734,45.70658493041992,29.666873931884766,8.883532524108887,-13.272086143493652,-34.90447235107422,31.495641708374023,5.195314407348633,-44.54356002807617,-52.57267761230469,-48.162620544433594,-32.84430694580078,141.75404357910156,116.72076416015625,137.74513244628906,121.1427001953125,114.8226318359375,111.1767578125
25,56,165,137,60,61,51,28,35,106,129,117,60,36,22,20,-13.972838401794434,46.6204719543457,29.779531478881836,9.02419376373291,-13.136862754821777,-34.79053497314453,31.462621688842773,5.6336750984191895,-44.542816162109375,-52.569236755371094,-48.16685104370117,-32.85439682006836,141.8446044921875,117.10807037353516,137.7554931640625,121.139892578125,114.81302642822266,111.1673355102539
26,50,134,170,62,54,53,26,34,95,129,102,54,31,21,19,-13.914290428161621,48.2611083984375,30.14832305908203,9.638606071472168,-12.5087890625,-34.190547943115234,31.14553451538086,6.356761932373047,-44.63363265991211,-52.58652877807617,-48.217796325683594,-32.92792510986328,142.7152862548828,118.84394836425781,138.18626403808594,121.3745346069336,114.88896942138672,111.15707397460938
25,54,131,143,62,56,57,24,32,92,126,111,54,30,21,20,-13.801114082336426,49.51045608520508,30.249267578125,10.256892204284668,-11.731281280517578,-33.32614517211914,30.504520416259766,6.215983867645264,-45.09026336669922,-52.881874084472656,-48.40635681152344,-33.01226806640625,144.14797973632812,122.03457641601562,139.02122497558594,122.02513885498047,115.05538177490234,110.95306396484375
24,58,126,135,60,52,52,21,32,90,132,121,63,33,20,20,-13.838027954101562,49.788658142089844,30.21065330505371,10.341697692871094,-11.5960693359375,-33.15331268310547,30.36590576171875,6.134547710418701,-45.165401458740234,-52.950401306152344,-48.44993209838867,-33.01906967163086,144.47830200195312,123.1380386352539,139.2267608642578,122.23249053955078,115.12703704833984,110.89169311523438
26,67,149,140,66,63,64,22,36,114,105,127,69,29,20,20,-13.913639068603516,50.29045486450195,29.96111488342285,10.401312828063965,-11.344642639160156,-32.69196319580078,30.24592399597168,5.611751556396484,-45.14968490600586,-52.979618072509766,-48.403324127197266,-32.77617263793945,145.3909912109375,127.22955322265625,140.02662658691406,123.06958770751953,115.56414031982422,110.74568176269531
25,71,156,132,65,68,66,23,39,118,97,126,70,33,23,22,-14.13205623626709,49.90925979614258,29.70768165588379,10.312182426452637,-11.349639892578125,-32.48888397216797,30.291133880615234,4.9088239669799805,-44.87562561035156,-52.87089157104492,-48.37190246582031,-32.62742233276367,145.96762084960938,130.98825073242188,140.6191864013672,123.82648468017578,116.16676330566406,110.85584259033203
26,71,157,114,61,64,62,23,40,128,119,134,82,41,23,25,-14.206814765930176,49.655517578125,29.613500595092773,10.250822067260742,-11.405594825744629,-32.46116256713867,30.335704803466797,4.666114807128906,-44.76778793334961,-52.814857482910156,-48.337791442871094,-32.54838562011719,146.16099548339844,132.17404174804688,140.80844116210938,124.08832550048828,116.37908172607422,110.92939758300781
28,66,146,109,61,60,57,27,39,121,119,129,82,41,22,23,-14.41787338256836,48.33296585083008,29.270599365234375,9.988544464111328,-11.659873962402344,-32.53469467163086,30.457014083862305,3.7371878623962402,-44.55664825439453,-52.6925163269043,-48.26057434082031,-32.38636779785156,146.6426544189453,135.28982543945312,141.37156677246094,124.78047180175781,116.97660064697266,111.2345199584961
26,55,122,110,60,64,67,28,36,114,108,125,81,40,23,21,-14.634982109069824,46.27836990356445,28.95446014404297,9.667913436889648,-12.004595756530762,-32.77744674682617,30.53168487548828,2.6524081230163574,-44.37799835205078,-52.620704650878906,-48.24913787841797,-32.35405349731445,147.0304718017578,137.86038208007812,141.74484252929688,125.35772705078125,117.5589828491211,111.6826171875
26,45,93,123,56,56,58,29,33,80,107,112,74,39,25,23,-14.720653533935547,45.39140319824219,28.845487594604492,9.573925971984863,-12.136458396911621,-32.88428497314453,30.561756134033203,2.2627041339874268,-44.32331466674805,-52.577693939208984,-48.25212860107422,-32.355838775634766,147.107666015625,138.50857543945312,141.8523712158203,125.49693298339844,117.73797607421875,111.82893371582031
27,42,77,132,57,52,56,29,28,89,111,111,75,37,23,19,-14.920482635498047,42.371673583984375,28.500988006591797,9.312621116638184,-12.454506874084473,-33.222633361816406,30.675491333007812,0.9881990551948547,-44.245452880859375,-52.417301177978516,-48.122718811035156,-32.3393669128418,147.22496032714844,139.3831329345703,142.16282653808594,125.74895477294922,118.01226806640625,112.22372436523438
26,37,102,110,57,58,65,30,29,80,83,93,60,31,24,17,-15.087347984313965,38.88646697998047,28.153339385986328,9.03271484375,-12.766524314880371,-33.53150177001953,30.765422821044922,-0.5064047574996948,-44.24919891357422,-52.297664642333984,-48.01930618286133,-32.28257751464844,147.2617645263672,138.6112518310547,142.3770751953125,125.88391876220703,118.2068862915039,112.51017761230469
23,38,108,109,56,71,72,29,29,76,86,84,62,32,25,20,-15.141066551208496,37.616188049316406,28.021339416503906,8.926560401916504,-12.876370429992676,-33.63920593261719,30.787195205688477,-1.011599063873291,-44.27439880371094,-52.27549743652344,-47.99082565307617,-32.2772216796875,147.25753784179688,137.88648986816406,142.44728088378906,125.91547393798828,118.24734497070312,112.59954071044922
24,38,114,115,61,76,72,29,28,81,86,79,59,33,25,20,-15.41329288482666,33.53009796142578,27.53363800048828,8.440093040466309,-13.310730934143066,-34.067405700683594,30.901689529418945,-2.1538608074188232,-44.281898498535156,-52.22848892211914,-47.890098571777344,-32.23114776611328,147.18089294433594,135.00521850585938,142.5720977783203,126.0604476928711,118.41565704345703,112.88053894042969
23,41,123,99,63,74,71,28,30,97,86,73,63,34,26,19,-15.545085906982422,30.78807258605957,27.294435501098633,8.183880805969238,-13.547270774841309,-34.3012580871582,30.97089385986328,-2.6081793308258057,-44.2734260559082,-52.19481658935547,-47.83012390136719,-32.19723129272461,147.12908935546875,132.71475219726562,142.58909606933594,126.10218048095703,118.4795150756836,113.01958465576172
27,48,137,95,61,75,76,30,34,108,89,76,65,37,24,22,-15.623440742492676,28.62541961669922,27.12752342224121,7.992929458618164,-13.711845397949219,-34.47397994995117,31.043977737426758,-2.807788133621216,-44.24291229248047,-52.15995407104492,-47.75571060180664,-32.16071319580078,147.06983947753906,130.78082275390625,142.56605529785156,126.13580322265625,118.50885009765625,113.13411712646484
27,48,113,104,65,73,71,29,31,108,91,81,65,33,24,22,-15.680469512939453,25.856111526489258,27.016033172607422,7.842971324920654,-13.841389656066895,-34.59660339355469,31.09305191040039,-2.836782455444336,-44.20402908325195,-52.12395095825195,-47.6922492980957,-32.128196716308594,146.96920776367188,128.128173828125,142.4480438232422,126.09235382080078,118.47980499267578,113.18930053710938
28,54,130,111,65,60,65,28,35,126,96,99,68,31,22,23,-15.6980619430542,24.662532806396484,26.975069046020508,7.772974014282227,-13.867558479309082,-34.640411376953125,31.12166976928711,-2.7257680892944336,-44.174251556396484,-52.09290313720703,-47.62203598022461,-32.082210540771484,146.89418029785156,126.88455200195312,142.32740783691406,126.01962280273438,118.3990707397461,113.16654205322266
28,54,128,104,60,50,62,27,35,125,101,101,67,31,22,23,-15.734611511230469,23.547258377075195,26.918100357055664,7.7012410163879395,-13.925472259521484,-34.70164489746094,31.164278030395508,-2.420941114425659,-44.13115692138672,-52.0364875793457,-47.54664611816406,-32.024085998535156,146.76600646972656,125.62762451171875,142.15675354003906,125.88812255859375,118.28340148925781,113.10493469238281
30,51,117,121,59,54,68,30,33,124,131,101,67,28,20,25,-15.692413330078125,22.666074752807617,26.90338897705078,7.6933183670043945,-13.903267860412598,-34.690086364746094,31.201711654663086,-2.1307687759399414,-44.12320327758789,-51.99388885498047,-47.470703125,-31.95442771911621,146.6317138671875,124.50132751464844,142.02223205566406,125.74903106689453,118.1435546875,112.9946517944336
29,46,110,118,60,53,70,30,31,108,126,102,63,24,21,23,-15.65579605102539,21.7396297454834,26.903121948242188,7.7077765464782715,-13.894238471984863,-34.666404724121094,31.214078903198242,-1.7377187013626099,-44.12614822387695,-51.95835876464844,-47.431419372558594,-31.899635314941406,146.5357208251953,123.41424560546875,141.9003143310547,125.6156234741211,118.03469848632812,112.88772583007812
28,56,117,129,58,51,68,31,30,105,137,117,66,23,20,24,-15.549778938293457,20.260957717895508,27.071378707885742,7.821599006652832,-13.834761619567871,-34.57756805419922,31.244091033935547,-0.8632903099060059,-44.0313835144043,-51.899009704589844,-47.38166427612305,-31.865446090698242,146.24234008789062,121.5455093383789,141.4550323486328,125.31395721435547,117.77938079833984,112.71084594726562
27,56,124,129,56,54,67,31,29,111,185,111,60,26,21,21,-15.4885835647583,19.664804458618164,27.17986488342285,7.894873142242432,-13.729467391967773,-34.475006103515625,31.255386352539062,-0.4000283181667328,-43.98524856567383,-51.879940032958984,-47.32892990112305,-31.838123321533203,146.10076904296875,120.74983215332031,141.26669311523438,125.1862564086914,117.62032318115234,112.59842681884766
28,60,141,156,60,59,73,31,29,123,194,129,71,28,22,22,-15.376598358154297,19.2056884765625,27.340585708618164,8.011629104614258,-13.591904640197754,-34.36719512939453,31.27585220336914,0.008491134271025658,-43.92610549926758,-51.85529708862305,-47.28257751464844,-31.81702423095703,145.95211791992188,120.00589752197266,141.04652404785156,125.04869842529297,117.4766616821289,112.50093078613281
27,65,171,164,56,53,66,30,29,118,192,150,81,30,21,23,-15.195416450500488,18.772558212280273,27.610986709594727,8.222587585449219,-13.411214828491211,-34.195472717285156,31.28252601623535,0.5564151406288147,-43.85631561279297,-51.83175277709961,-47.27491760253906,-31.827655792236328,145.76214599609375,118.98998260498047,140.75543212890625,124.86097717285156,117.32470703125,112.396484375
25,64,185,165,59,54,61,27,32,120,197,149,80,30,22,22,-15.037334442138672,18.865623474121094,27.813861846923828,8.37906551361084,-13.254283905029297,-34.0579719543457,31.22175407409668,0.6954696774482727,-43.88106918334961,-51.88654708862305,-47.31865692138672,-31.88967514038086,145.64901733398438,118.58270263671875,140.57400512695312,124.74018859863281,117.20137023925781,112.31371307373047
24,55,185,151,54,52,60,26,33,124,193,133,75,31,21,22,-14.902512550354004,19.760251998901367,28.012874603271484,8.549187660217285,-13.102304458618164,-33.89715576171875,31.076753616333008,0.6081822514533997,-43.97903060913086,-52.00947570800781,-47.45527267456055,-32.02323913574219,145.5565643310547,118.38545989990234,140.43588256835938,124.63623046875,117.10395812988281,112.21019744873047
24,51,177,145,56,53,63,28,35,101,170,127,77,33,23,25,-14.65776252746582,24.51127815246582,28.320350646972656,8.833017349243164,-12.843809127807617,-33.62173080444336,30.834081649780273,-0.4095606207847595,-44.172035217285156,-52.21088409423828,-47.69384002685547,-32.24534225463867,145.57908630371094,119.86589050292969,140.4648895263672,124.6519546508789,117.14259338378906,112.20060729980469
23,57,184,137,58,51,54,27,39,90,166,108,67,31,22,25,-14.566849708557129,26.475624084472656,28.435766220092773,8.93627643585205,-12.745183944702148,-33.52201461791992,30.7720947265625,-0.7792688012123108,-44.21269226074219,-52.25718307495117,-47.754825592041016,-32.29889678955078,145.62818908691406,120.8355712890625,140.5179901123047,124.69673156738281,117.1954574584961,112.2261962890625
20,53,159,118,64,51,53,27,40,91,154,114,58,31,22,23,-14.37623119354248,33.578121185302734,28.669097900390625,9.157766342163086,-12.52637767791748,-33.30747604370117,30.666187286376953,-1.4706010818481445,-44.282569885253906,-52.33070755004883,-47.83439636230469,-32.36220932006836,145.7972869873047,124.687744140625,140.7144775390625,124.86093139648438,117.32384490966797,112.28506469726562
23,65,170,118,59,46,55,27,40,115,165,115,62,32,22,23,-14.269193649291992,39.95881271362305,28.81971549987793,9.322454452514648,-12.378015518188477,-33.17741012573242,30.62616729736328,-0.8184131383895874,-44.29755401611328,-52.34343719482422,-47.85210037231445,-32.36238479614258,145.97230529785156,128.4998016357422,140.92941284179688,125.03160095214844,117.44775390625,112.3307876586914
23,66,171,139,60,48,54,27,40,114,158,118,66,29,23,24,-14.240250587463379,41.78133010864258,28.862895965576172,9.372396469116211,-12.327581405639648,-33.140010833740234,30.62066078186035,-0.38331663608551025,-44.297122955322266,-52.339752197265625,-47.85007095336914,-32.35812759399414,146.03236389160156,129.71070861816406,141.00970458984375,125.08921813964844,117.49175262451172,112.35099029541016
25,67,168,142,56,48,56,23,41,133,147,131,70,30,20,21,-14.139679908752441,46.463706970214844,28.94400978088379,9.488961219787598,-12.204291343688965,-33.003204345703125,30.622888565063477,1.2344876527786255,-44.3185920715332,-52.334808349609375,-47.84002685546875,-32.32324981689453,146.21780395507812,133.2707061767578,141.32191467285156,125.30853271484375,117.6529541015625,112.42481231689453
25,64,163,138,52,47,55,23,42,144,155,140,70,30,20,24,-14.029009819030762,49.95404052734375,28.995418548583984,9.596524238586426,-12.07779598236084,-32.84077835083008,30.637557983398438,2.8835248947143555,-44.35073471069336,-52.33111572265625,-47.819007873535156,-32.26676940917969,146.4473114013672,136.67291259765625,141.7291259765625,125.59744262695312,117.8515853881836,112.51377868652344
28,70,173,142,49,48,53,24,47,153,170,128,66,31,21,25,-13.988570213317871,50.962181091308594,29.01624298095703,9.63245964050293,-12.038925170898438,-32.79159164428711,30.64727210998535,3.4618093967437744,-44.35521697998047,-52.327857971191406,-47.80879211425781,-32.245521545410156,146.51707458496094,137.82366943359375,141.8512420654297,125.68797302246094,117.91088104248047,112.54090118408203
28,66,171,174,56,50,52,24,47,136,168,132,61,30,19,27,-13.868334770202637,53.7659797668457,29.058141708374023,9.718446731567383,-11.961318016052246,-32.679115295410156,30.689130783081055,5.464226245880127,-44.36769104003906,-52.306941986083984,-47.77913284301758,-32.17179870605469,146.6836395263672,141.44622802734375,142.1607666015625,125.9027328491211,118.0595932006836,112.58786010742188
30,69,177,163,55,47,55,24,49,148,176,131,58,31,19,27,-13.84607219696045,55.30307388305664,29.07064437866211,9.760780334472656,-11.942625045776367,-32.64710235595703,30.709697723388672,6.851360321044922,-44.36156463623047,-52.288787841796875,-47.77701950073242,-32.14971923828125,146.74180603027344,143.71176147460938,142.30331420898438,125.99551391601562,118.12355041503906,112.58995056152344
27,67,173,164,55,46,57,24,46,153,160,115,50,27,19,29,-13.830821990966797,56.61772155761719,29.067577362060547,9.780599594116211,-11.9334077835083,-32.63589859008789,30.738935470581055,8.222756385803223,-44.35456848144531,-52.266239166259766,-47.76247787475586,-32.12157440185547,146.79608154296875,145.8896026611328,142.43829345703125,126.07784271240234,118.18115997314453,112.59814453125
29,65,164,184,55,38,51,23,43,145,147,119,58,34,20,26,-13.7921724319458,58.13573455810547,29.06268310546875,9.818947792053223,-11.891063690185547,-32.61154556274414,30.807931900024414,10.048164367675781,-44.32163619995117,-52.211368560791016,-47.71036148071289,-32.05961227416992,146.8871307373047,148.8059539794922,142.63650512695312,126.21784973144531,118.28482055664062,112.63456726074219
30,66,168,183,63,41,53,25,45,157,146,120,64,37,20,25,-13.7720365524292,58.97882080078125,29.06124496459961,9.844440460205078,-11.868738174438477,-32.58441162109375,30.852685928344727,11.268377304077148,-44.304359436035156,-52.180206298828125,-47.685401916503906,-32.02424621582031,146.94036865234375,150.74447631835938,142.7806854248047,126.3141860961914,118.35719299316406,112.66329956054688
28,62,151,173,65,47,65,26,43,159,140,110,67,39,19,23,-13.753410339355469,59.64339828491211,29.056650161743164,9.86462116241455,-11.855236053466797,-32.56433868408203,30.908430099487305,12.343986511230469,-44.27958297729492,-52.14051055908203,-47.64945983886719,-31.97869300842285,147.00332641601562,152.49542236328125,142.9395294189453,126.41997528076172,118.4349365234375,112.69939422607422
27,63,171,197,70,53,63,27,43,161,142,117,68,39,20,23,-13.734294891357422,60.610809326171875,29.03626823425293,9.891812324523926,-11.842796325683594,-32.561649322509766,31.004392623901367,14.079850196838379,-44.25350570678711,-52.07292175292969,-47.592655181884766,-31.920089721679688,147.08668518066406,155.0107421875,143.22222900390625,126.58463287353516,118.56495666503906,112.77286529541016
30,64,180,201,72,56,60,29,43,143,149,119,69,40,21,21,-13.746964454650879,61.17034912109375,29.014129638671875,9.898965835571289,-11.853410720825195,-32.56150817871094,31.04775047302246,15.14844036102295,-44.25163269042969,-52.04293441772461,-47.58107376098633,-31.90338897705078,147.1272430419922,156.43023681640625,143.40499877929688,126.68187713623047,118.64649200439453,112.81824493408203
28,63,185,201,74,60,61,28,44,143,149,104,61,34,22,21,-13.626778602600098,61.82621383666992,28.99294090270996,9.923981666564941,-11.813376426696777,-32.53178024291992,31.09404754638672,16.112215042114258,-44.33400344848633,-52.060455322265625,-47.58164978027344,-31.892213821411133,147.2132110595703,157.83868408203125,143.75892639160156,126.912841796875,118.83721923828125,112.946533203125
27,66,179,202,74,59,68,25,38,122,128,112,99,35,22,20,-13.629751205444336,62.78883743286133,28.938322067260742,9.928390502929688,-11.804701805114746,-32.53485870361328,31.133848190307617,17.810184478759766,-44.38991928100586,-52.050777435302734,-47.58473587036133,-31.906234741210938,147.29934692382812,159.5551300048828,144.12960815429688,127.12637329101562,119.03723907470703,113.10343933105469
28,66,182,191,70,57,55,24,39,129,157,121,104,36,26,21,-13.629779815673828,63.29410934448242,28.930513381958008,9.943778038024902,-11.791399955749512,-32.531925201416016,31.171987533569336,18.724132537841797,-44.38800811767578,-52.02982711791992,-47.57901382446289,-31.913408279418945,147.35836791992188,160.35865783691406,144.33969116210938,127.27262878417969,119.18603515625,113.23381042480469
27,62,172,167,66,51,54,23,37,110,161,114,103,35,24,20,-13.623478889465332,63.744869232177734,28.94851303100586,9.973386764526367,-11.775555610656738,-32.527671813964844,31.222640991210938,19.544708251953125,-44.35359573364258,-51.98829650878906,-47.56248092651367,-31.910987854003906,147.40855407714844,161.0070037841797,144.50001525878906,127.39066314697266,119.32713317871094,113.36668395996094
27,64,169,164,63,48,52,21,40,114,172,118,106,36,24,21,-13.614404678344727,64.27409362792969,28.990066528320312,10.024288177490234,-11.7440767288208,-32.52052307128906,31.292186737060547,20.50795555114746,-44.29458236694336,-51.92619323730469,-47.54071044921875,-31.917177200317383,147.47100830078125,161.6685791015625,144.70603942871094,127.53988647460938,119.52030944824219,113.55719757080078
29,65,164,165,64,52,62,24,38,108,171,128,112,39,24,20,-13.590815544128418,64.61909484863281,29.00816535949707,10.063167572021484,-11.733564376831055,-32.523902893066406,31.34821891784668,21.066314697265625,-44.26061248779297,-51.86504364013672,-47.51785659790039,-31.907608032226562,147.51112365722656,161.99327087402344,144.83738708496094,127.60778045654297,119.65057373046875,113.68872833251953
26,50,156,165,58,66,60,25,36,97,174,119,79,35,23,20,-13.500347137451172,65.24779510498047,29.07016944885254,10.126530647277832,-11.712726593017578,-32.54737854003906,31.511371612548828,21.964630126953125,-44.13153076171875,-51.72631072998047,-47.42127227783203,-31.829824447631836,147.55801391601562,162.3583984375,145.0160675048828,127.75357818603516,119.87860870361328,113.91987609863281
26,56,178,153,57,65,57,25,33,92,140,126,80,35,21,19,-13.500347137451172,65.24779510498047,29.07016944885254,10.126530647277832,-11.712726593017578,-32.54737854003906,31.511371612548828,21.964630126953125,-44.13153076171875,-51.72631072998047,-47.42127227783203,-31.829824447631836,147.55801391601562,162.3583984375,145.0160675048828,127.75357818603516,119.87860870361328,113.91987609863281
26,54,162,155,61,65,57,25,31,90,122,137,87,38,24,20,-13.408248901367188,65.62049102783203,29.120098114013672,10.177386283874512,-11.688050270080566,-32.54904556274414,31.616525650024414,22.36260414123535,-44.05704879760742,-51.63447952270508,-47.34821701049805,-31.754541397094727,147.5547332763672,162.3792724609375,145.05638122558594,127.7765121459961,119.96072387695312,113.99980163574219
24,54,166,167,64,66,63,25,25,78,109,152,94,43,25,19,-13.36761474609375,65.78627014160156,29.1409969329834,10.205202102661133,-11.673182487487793,-32.5503044128418,31.652862548828125,22.478721618652344,-44.033966064453125,-51.596492767333984,-47.31971740722656,-31.72655487060547,147.54393005371094,162.3291778564453,145.052001953125,127.75601959228516,119.97161102294922,114.01692199707031
21,50,166,149,67,72,63,25,25,74,131,155,96,42,23,19,-13.301249504089355,65.97256469726562,29.167194366455078,10.23607063293457,-11.656167984008789,-32.53926467895508,31.693187713623047,22.521677017211914,-44.01802444458008,-51.563594818115234,-47.290550231933594,-31.692567825317383,147.50772094726562,162.1991424560547,145.03060913085938,127.7221908569336,119.96495056152344,114.01659393310547
22,50,163,138,65,60,61,24,23,74,122,148,96,44,24,19,-13.24671459197998,66.196533203125,29.165729522705078,10.24517822265625,-11.648628234863281,-32.552181243896484,31.72303009033203,22.032333374023438,-44.021671295166016,-51.53902053833008,-47.26238250732422,-31.6663818359375,147.37989807128906,161.30374145507812,144.9112548828125,127.58155822753906,119.85271453857422,113.93042755126953
19,40,117,153,63,58,66,22,24,45,124,140,86,42,24,19,-13.205517768859863,66.10564422607422,29.127342224121094,10.213290214538574,-11.67020320892334,-32.58332824707031,31.742755889892578,20.91109275817871,-44.04627990722656,-51.52344512939453,-47.23349380493164,-31.631025314331055,147.2645721435547,159.89048767089844,144.78134155273438,127.42466735839844,119.72547912597656,113.82940673828125
20,37,116,149,68,58,67,22,24,52,133,158,83,43,22,20,-13.140063285827637,65.56132507324219,29.007400512695312,10.12381649017334,-11.776178359985352,-32.670921325683594,31.735567092895508,18.82989501953125,-44.157554626464844,-51.55335235595703,-47.25812530517578,-31.622039794921875,147.05026245117188,157.5518035888672,144.61502075195312,127.19892120361328,119.56964874267578,113.67949676513672
18,35,106,139,69,57,64,23,25,58,127,150,90,43,22,19,-13.144315719604492,63.956878662109375,28.796396255493164,9.945290565490723,-11.97146987915039,-32.885963439941406,31.72342872619629,15.091906547546387,-44.286014556884766,-51.575355529785156,-47.28716278076172,-31.656551361083984,146.72166442871094,153.0579376220703,144.3526611328125,126.85987091064453,119.36174011230469,113.55181121826172
18,32,93,113,65,41,52,20,25,61,101,139,86,45,26,21,-13.130135536193848,62.677825927734375,28.648666381835938,9.812063217163086,-12.085390090942383,-33.020023345947266,31.73211097717285,12.690328598022461,-44.36369705200195,-51.565589904785156,-47.24303436279297,-31.628103256225586,146.58819580078125,149.96104431152344,144.19009399414062,126.66694641113281,119.24330139160156,113.54158782958984
18,33,104,125,59,35,50,22,26,63,105,137,84,44,24,21,-13.15107536315918,61.2696647644043,28.48285484313965,9.65703010559082,-12.190475463867188,-33.20888137817383,31.692930221557617,10.412693977355957,-44.47529602050781,-51.599403381347656,-47.24418640136719,-31.6773681640625,146.43370056152344,146.7324676513672,143.9935302734375,126.47339630126953,119.14147186279297,113.58055114746094
21,34,104,113,69,50,60,24,23,69,107,141,88,44,23,21,-13.295902252197266,58.65721130371094,28.222599029541016,9.317493438720703,-12.458687782287598,-33.45315933227539,31.575389862060547,7.051806449890137,-44.651248931884766,-51.76833724975586,-47.36582946777344,-31.81505584716797,146.15992736816406,141.41775512695312,143.71136474609375,126.30519104003906,119.08621215820312,113.65373229980469
21,41,117,110,66,51,60,23,24,74,111,116,95,44,25,21,-13.421171188354492,56.77016830444336,28.077144622802734,9.11412239074707,-12.643162727355957,-33.62167739868164,31.488277435302734,5.078775882720947,-44.74802780151367,-51.85763931274414,-47.444190979003906,-31.90807342529297,145.99594116210938,138.04953002929688,143.47900390625,126.15419006347656,119.04634857177734,113.72100067138672
21,37,107,107,64,56,61,24,22,82,109,99,78,40,25,22,-13.531571388244629,54.747802734375,27.96650505065918,8.957374572753906,-12.780346870422363,-33.75362777709961,31.44140625,3.3266384601593018,-44.79498291015625,-51.90662384033203,-47.479957580566406,-31.959157943725586,145.85398864746094,134.9740753173828,143.2653045654297,126.02992248535156,119.0091552734375,113.77637481689453
21,40,114,145,68,63,67,26,21,85,109,118,77,38,23,21,-13.682793617248535,51.390113830566406,27.794292449951172,8.758858680725098,-12.940897941589355,-33.92811965942383,31.413503646850586,0.9974186420440674,-44.83540344238281,-51.93575668334961,-47.47590637207031,-31.983346939086914,145.6958770751953,131.17922973632812,143.03004455566406,125.88753509521484,118.94025421142578,113.82567596435547
26,43,108,135,69,67,79,25,23,90,105,123,81,37,25,21,-13.742247581481934,49.006629943847656,27.70461654663086,8.66783332824707,-12.999529838562012,-34.01835250854492,31.41647720336914,-0.4116952419281006,-44.84876251220703,-51.92808151245117,-47.44297409057617,-31.973220825195312,145.63502502441406,129.06356811523438,142.91046142578125,125.80231475830078,118.88733673095703,113.84695434570312
24,44,110,143,62,62,71,25,24,91,105,112,82,38,26,21,-13.806048393249512,46.92936325073242,27.61324691772461,8.570651054382324,-13.069411277770996,-34.13230895996094,31.429319381713867,-1.4882954359054565,-44.85001754760742,-51.91496276855469,-47.40773391723633,-31.962812423706055,145.56381225585938,127.37490844726562,142.77365112304688,125.7049331665039,118.81956481933594,113.8530044555664
29,41,95,137,56,63,72,28,24,95,111,117,72,35,26,23,-13.918837547302246,43.232261657714844,27.489919662475586,8.460821151733398,-13.18271541595459,-34.287208557128906,31.453174591064453,-3.0135092735290527,-44.83498764038086,-51.87217712402344,-47.36499786376953,-31.946256637573242,145.4510955810547,124.77539825439453,142.56634521484375,125.52615356445312,118.7017593383789,113.82010650634766
28,41,104,130,56,55,68,28,26,88,103,129,74,33,25,23,-13.99831485748291,40.80704879760742,27.425607681274414,8.418869972229004,-13.23314094543457,-34.35955810546875,31.475595474243164,-3.77486515045166,-44.81044387817383,-51.82895278930664,-47.333744049072266,-31.933542251586914,145.36599731445312,123.19691467285156,142.43594360351562,125.3942642211914,118.60852813720703,113.77014923095703
29,42,98,90,51,50,71,29,27,83,100,116,72,32,24,23,-14.080422401428223,38.45262145996094,27.363677978515625,8.39159870147705,-13.276952743530273,-34.423274993896484,31.494426727294922,-4.337124347686768,-44.790260314941406,-51.79304504394531,-47.307228088378906,-31.924448013305664,145.28244018554688,121.77626037597656,142.3284912109375,125.2746353149414,118.50694274902344,113.70096588134766
27,46,122,99,50,51,62,29,27,83,119,112,64,30,22,23,-14.14936351776123,36.450218200683594,27.313119888305664,8.382430076599121,-13.287627220153809,-34.45657730102539,31.510961532592773,-4.622183799743652,-44.78035354614258,-51.756675720214844,-47.27741241455078,-31.911956787109375,145.20687866210938,120.63257598876953,142.26300048828125,125.15899658203125,118.39706420898438,113.61280059814453
27,47,124,91,53,52,61,29,29,81,112,126,63,30,22,22,-14.215450286865234,33.80767822265625,27.285484313964844,8.378853797912598,-13.262710571289062,-34.45100021362305,31.528850555419922,-4.703660011291504,-44.755741119384766,-51.731834411621094,-47.236610412597656,-31.886972427368164,145.10227966308594,119.20751190185547,142.14772033691406,125.01876831054688,118.22208404541016,113.44783782958984
25,47,128,111,55,53,58,26,27,87,94,117,62,30,20,21,-14.29240894317627,32.740779876708984,27.29156494140625,8.367548942565918,-13.218634605407715,-34.41665267944336,31.542631149291992,-4.607739448547363,-44.699222564697266,-51.736976623535156,-47.199886322021484,-31.86505889892578,144.97547912597656,118.59680938720703,141.99745178222656,124.9159164428711,118.02183532714844,113.23353576660156
25,49,132,123,56,55,65,27,28,95,100,108,58,28,21,20,-14.375349044799805,31.845121383666992,27.29184341430664,8.385482788085938,-13.163015365600586,-34.36494445800781,31.557369232177734,-4.3555827140808105,-44.650325775146484,-51.71476364135742,-47.162479400634766,-31.841657638549805,144.85385131835938,118.05868530273438,141.8817596435547,124.78550720214844,117.81973266601562,113.01204681396484
25,49,139,123,55,58,70,27,27,97,99,115,53,28,21,20,-14.560101509094238,31.1954345703125,27.378067016601562,8.467859268188477,-13.057971954345703,-34.27088928222656,31.594371795654297,-3.8953118324279785,-44.46885681152344,-51.63615036010742,-47.11152267456055,-31.831937789916992,144.64566040039062,117.54524230957031,141.6224822998047,124.56867980957031,117.5263900756836,112.68480682373047
28,44,138,138,62,57,65,27,26,92,79,125,52,29,21,20,-14.681167602539062,30.817636489868164,27.46318817138672,8.533164978027344,-12.98256778717041,-34.195945739746094,31.61334800720215,-3.547818660736084,-44.34071731567383,-51.59663391113281,-47.09177017211914,-31.839988708496094,144.49530029296875,117.2000503540039,141.4253387451172,124.41899871826172,117.324951171875,112.46356964111328
27,42,132,144,61,55,64,27,25,89,85,130,51,26,20,20,-14.75467300415039,30.465789794921875,27.507680892944336,8.57921314239502,-12.942256927490234,-34.14400863647461,31.6160945892334,-3.291888475418091,-44.281951904296875,-51.575435638427734,-47.08723449707031,-31.847431182861328,144.4056854248047,116.92577362060547,141.3140869140625,124.31177520751953,117.18675231933594,112.31427764892578
26,39,131,134,65,61,72,29,26,74,144,138,54,27,24,21,-14.773651123046875,30.128400802612305,27.6202392578125,8.644761085510254,-12.870716094970703,-34.049827575683594,31.622976303100586,-2.980984687805176,-44.22064208984375,-51.59071731567383,-47.09103012084961,-31.862060546875,144.2539825439453,116.51244354248047,141.11007690429688,124.16658782958984,116.97672271728516,112.11627197265625
27,38,119,129,64,64,67,29,27,64,144,146,55,28,22,22,-14.749040603637695,30.078554153442383,27.735862731933594,8.712418556213379,-12.77939510345459,-33.96916198730469,31.618558883666992,-2.82258677482605,-44.182708740234375,-51.62543487548828,-47.098270416259766,-31.88824462890625,144.1273956298828,116.24501037597656,140.9183807373047,124.06189727783203,116.8084716796875,111.97425079345703
26,35,118,144,68,60,59,26,26,64,181,136,61,31,24,21,-14.690464973449707,30.122737884521484,27.82578468322754,8.821587562561035,-12.674898147583008,-33.8697509765625,31.59827423095703,-2.6949620246887207,-44.20664596557617,-51.6503791809082,-47.12644958496094,-31.933792114257812,144.002197265625,116.041748046875,140.8292999267578,123.92852020263672,116.65045928955078,111.83778381347656
21,37,112,134,63,59,60,25,32,81,189,127,74,33,24,22,-14.580487251281738,31.233232498168945,28.013429641723633,9.036778450012207,-12.465869903564453,-33.653038024902344,31.53711700439453,-2.340240955352783,-44.253963470458984,-51.728172302246094,-47.19882583618164,-32.01985168457031,143.84678649902344,116.30134582519531,140.74530029296875,123.79085540771484,116.43700408935547,111.6121826171875
24,40,111,127,68,58,58,27,40,103,193,112,73,33,25,23,-14.524876594543457,34.06072998046875,28.137361526489258,9.188627243041992,-12.375560760498047,-33.51449966430664,31.512622833251953,-1.694604516029358,-44.260032653808594,-51.761474609375,-47.274208068847656,-32.079036712646484,143.7567901611328,117.53515625,140.7276153564453,123.73342895507812,116.36026000976562,111.48308563232422
25,51,153,139,63,48,50,26,46,143,160,134,72,35,26,23,-14.448941230773926,38.54490661621094,28.269527435302734,9.398669242858887,-12.192607879638672,-33.33851623535156,31.510095596313477,-0.4337266981601715,-44.254188537597656,-51.75395965576172,-47.302120208740234,-32.12129592895508,143.67770385742188,119.69525909423828,140.7650604248047,123.67748260498047,116.2751235961914,111.36033630371094
32,86,240,196,66,46,51,25,48,150,193,155,72,35,28,22,-14.255096435546875,47.77127456665039,28.629074096679688,9.94979476928711,-11.6945219039917,-32.92709732055664,31.58062744140625,3.3520874977111816,-44.175514221191406,-51.62078094482422,-47.2614860534668,-32.16032028198242,143.54112243652344,124.37431335449219,140.9849853515625,123.57134246826172,116.12998962402344,111.18074798583984
35,99,247,207,63,53,69,27,58,214,178,175,70,32,26,22,-14.044037818908691,53.41484069824219,29.059518814086914,10.642609596252441,-11.034153938293457,-32.398006439208984,31.68050193786621,6.873430252075195,-44.04088592529297,-51.40018844604492,-47.14979553222656,-32.171226501464844,143.44984436035156,127.699462890625,141.302978515625,123.48140716552734,115.9718246459961,110.9876937866211
36,107,254,235,68,53,71,28,57,214,188,182,59,34,26,23,-13.777496337890625,58.29648971557617,29.60788917541504,11.519434928894043,-10.186790466308594,-31.685529708862305,31.771451950073242,10.697938919067383,-43.88064193725586,-51.133155822753906,-47.011478424072266,-32.159828186035156,143.30715942382812,130.86097717285156,141.59716796875,123.28466033935547,115.6678237915039,110.59317779541016
34,107,265,254,69,52,72,26,52,212,198,233,86,41,26,21,-13.388640403747559,63.9866828918457,30.270992279052734,12.674971580505371,-8.995304107666016,-30.61964988708496,31.875164031982422,16.14883041381836,-43.734130859375,-50.81291580200195,-46.80827331542969,-32.10066604614258,143.17103576660156,134.99227905273438,142.09812927246094,123.10050964355469,115.26121520996094,110.01704406738281
33,104,257,259,71,53,71,24,48,195,205,218,87,41,25,20,-13.235508918762207,66.02113342285156,30.513965606689453,13.181439399719238,-8.455398559570312,-30.155160903930664,31.926301956176758,18.39707374572754,-43.687339782714844,-50.67058563232422,-46.707244873046875,-32.07653045654297,143.17449951171875,136.73548889160156,142.45811462402344,123.123291015625,115.15157318115234,109.81829071044922
28,82,200,225,67,53,70,23,45,201,172,199,84,41,23,20,-13.041537284851074,67.65837860107422,30.827470779418945,13.738059043884277,-7.8933796882629395,-29.681116104125977,31.991331100463867,20.368865966796875,-43.60342788696289,-50.49801254272461,-46.60361862182617,-32.05610275268555,143.2356414794922,138.32318115234375,142.84051513671875,123.19759368896484,115.12867736816406,109.71358489990234
24,69,188,216,68,56,74,24,34,133,155,184,84,41,24,20,-12.568453788757324,69.76998901367188,31.461105346679688,14.670442581176758,-6.970488548278809,-28.8441104888916,32.1804084777832,22.910139083862305,-43.39341354370117,-50.18635559082031,-46.40422821044922,-31.95328712463379,143.3704833984375,140.24545288085938,143.48187255859375,123.42657470703125,115.25145721435547,109.70885467529297
22,59,177,176,63,57,72,24,35,145,133,182,93,40,25,20,-12.456326484680176,70.30181884765625,31.626359939575195,14.89244556427002,-6.746542453765869,-28.63894271850586,32.23744583129883,23.590063095092773,-43.32493591308594,-50.10224151611328,-46.34413528442383,-31.919353485107422,143.40676879882812,140.74481201171875,143.64141845703125,123.4937973022461,115.2908935546875,109.72249603271484
24,68,189,193,64,56,70,23,36,138,142,173,99,34,22,22,-12.227636337280273,71.6070327758789,31.973682403564453,15.385417938232422,-6.245471477508545,-28.185871124267578,32.380027770996094,25.40648651123047,-43.174861907958984,-49.892032623291016,-46.197330474853516,-31.841419219970703,143.49586486816406,141.95054626464844,144.0949249267578,123.6537857055664,115.4131851196289,109.78727722167969
26,69,198,194,62,57,72,25,38,146,194,176,100,32,20,22,-12.00485897064209,72.68716430664062,32.30378723144531,15.799568176269531,-5.837912082672119,-27.812097549438477,32.50401306152344,26.95468521118164,-43.01887130737305,-49.713890075683594,-46.074668884277344,-31.767534255981445,143.5860137939453,142.94338989257812,144.38414001464844,123.78189849853516,115.54093170166016,109.88103485107422
25,73,216,199,67,60,82,28,36,150,200,176,100,32,21,22,-11.971062660217285,72.94306945800781,32.3662223815918,15.878540992736816,-5.763400077819824,-27.744077682495117,32.52083206176758,27.34514617919922,-42.98889923095703,-49.684104919433594,-46.060184478759766,-31.764318466186523,143.60263061523438,143.19309997558594,144.4376983642578,123.80815124511719,115.57066345214844,109.9043197631836
25,72,223,194,68,57,67,28,37,192,212,179,98,35,23,24,-11.87559986114502,73.66439056396484,32.5201301574707,16.076984405517578,-5.580870628356934,-27.57744026184082,32.54468536376953,28.449865341186523,-42.94056701660156,-49.626991271972656,-46.04372787475586,-31.771636962890625,143.63690185546875,143.90184020996094,144.56768798828125,123.85673522949219,115.63729095458984,109.95159912109375
26,68,221,196,68,57,66,29,37,179,217,173,92,34,23,21,-11.779010772705078,74.11080932617188,32.62852478027344,16.218202590942383,-5.453296184539795,-27.454975128173828,32.560333251953125,29.067672729492188,-42.92376708984375,-49.59613037109375,-46.03814697265625,-31.773099899291992,143.66957092285156,144.3253173828125,144.6718292236328,123.90343475341797,115.70069122314453,109.99590301513672
25,57,205,182,64,57,66,30,36,179,217,121,65,33,24,21,-11.66947078704834,74.65016174316406,32.72480773925781,16.33230972290039,-5.340146541595459,-27.340396881103516,32.57085418701172,29.851884841918945,-42.92509841918945,-49.592201232910156,-46.04048156738281,-31.774770736694336,143.70484924316406,144.82200622558594,144.77407836914062,123.97361755371094,115.76879119873047,110.0462417602539
25,60,203,173,64,56,76,31,45,201,191,113,68,34,24,22,-11.524620056152344,75.3227767944336,32.84161376953125,16.486976623535156,-5.204891204833984,-27.208351135253906,32.56000900268555,30.785032272338867,-42.96290969848633,-49.60019302368164,-46.06836700439453,-31.80160140991211,143.74887084960938,145.44662475585938,144.919189453125,124.03897094726562,115.8516845703125,110.10669708251953
24,64,260,201,61,56,70,28,45,188,197,117,76,39,24,22,-11.395540237426758,75.7011947631836,32.90861892700195,16.568218231201172,-5.130335330963135,-27.124292373657227,32.565853118896484,31.16714859008789,-43.00117874145508,-49.61714172363281,-46.084415435791016,-31.807785034179688,143.76229858398438,145.7484588623047,145.0274658203125,124.09642791748047,115.911376953125,110.15461730957031
25,64,261,197,68,49,61,29,45,151,182,121,79,37,22,20,-11.348647117614746,75.95731353759766,32.948707580566406,16.620161056518555,-5.097486972808838,-27.08919334411621,32.54964828491211,31.508262634277344,-43.02867889404297,-49.6284065246582,-46.11524963378906,-31.84148597717285,143.7581329345703,145.9784698486328,145.08741760253906,124.10895538330078,115.94295501708984,110.18346405029297
24,63,266,197,69,47,63,28,44,149,180,128,76,35,20,22,-11.23900318145752,76.34080505371094,33.0533332824707,16.69729995727539,-5.04624080657959,-27.039897918701172,32.519371032714844,31.92380714416504,-43.07432174682617,-49.665950775146484,-46.17902374267578,-31.902860641479492,143.75318908691406,146.1904754638672,145.14244079589844,124.12638092041016,116.01593780517578,110.2584457397461
24,63,259,168,64,49,66,29,44,149,167,115,72,36,20,21,-11.16815185546875,76.5779800415039,33.107086181640625,16.716859817504883,-5.032845497131348,-27.026010513305664,32.50634765625,32.16777801513672,-43.10039520263672,-49.70073699951172,-46.2130241394043,-31.93036651611328,143.7506561279297,146.3377227783203,145.15451049804688,124.15258026123047,116.05760192871094,110.30186462402344
23,63,246,168,66,47,55,27,32,100,129,148,79,40,20,20,-11.1075439453125,76.76213836669922,33.16188430786133,16.746801376342773,-5.014977931976318,-27.006372451782227,32.500389099121094,32.3458366394043,-43.109161376953125,-49.71554946899414,-46.23707580566406,-31.94968605041504,143.75079345703125,146.4481964111328,145.15774536132812,124.1699447631836,116.09790802001953,110.34170532226562
21,51,158,131,67,46,54,28,32,98,126,154,75,38,19,21,-11.051318168640137,76.9208755493164,33.237213134765625,16.82438850402832,-4.989395618438721,-26.98627471923828,32.49353790283203,32.494964599609375,-43.09893035888672,-49.681854248046875,-46.258338928222656,-31.972885131835938,143.7560272216797,146.54417419433594,145.12904357910156,124.13133239746094,116.13968658447266,110.38811492919922
22,48,144,141,62,48,54,30,28,83,123,146,79,37,19,21,-11.034689903259277,76.96102905273438,33.27626037597656,16.86089515686035,-4.9905242919921875,-26.98685073852539,32.4959831237793,32.51930236816406,-43.075706481933594,-49.64573287963867,-46.2664680480957,-31.9801025390625,143.76324462890625,146.5618438720703,145.09608459472656,124.0989761352539,116.17054748535156,110.41793823242188
22,46,125,144,72,59,54,29,26,78,134,155,84,39,19,20,-11.0264253616333,76.9858627319336,33.316932678222656,16.8831729888916,-4.99388313293457,-26.992090225219727,32.4974250793457,32.52144241333008,-43.04243469238281,-49.61958312988281,-46.271034240722656,-31.98659896850586,143.77183532714844,146.58436584472656,145.03814697265625,124.07711029052734,116.19336700439453,110.44434356689453
20,43,121,143,72,61,65,29,27,72,116,166,100,43,19,21,-11.030193328857422,76.94135284423828,33.38819885253906,16.877355575561523,-5.010015487670898,-26.999805450439453,32.49350357055664,32.34061813354492,-42.98210906982422,-49.62432098388672,-46.28711700439453,-31.996875762939453,143.7960205078125,146.5875701904297,144.95692443847656,124.1196060180664,116.24696350097656,110.48199462890625
19,35,104,150,71,64,70,29,25,53,111,154,99,41,19,23,-11.044322967529297,76.70830535888672,33.4171028137207,16.84725570678711,-5.0362043380737305,-27.00910186767578,32.47860336303711,31.822025299072266,-42.95208740234375,-49.65487289428711,-46.31087112426758,-32.015560150146484,143.83010864257812,146.47305297851562,144.9271697998047,124.19998168945312,116.3080062866211,110.53099060058594
21,39,112,140,73,64,66,28,25,61,106,146,98,41,20,22,-11.06385326385498,76.15335083007812,33.400089263916016,16.752492904663086,-5.11868143081665,-27.064237594604492,32.424041748046875,30.537357330322266,-42.97248458862305,-49.741973876953125,-46.37251281738281,-32.06068420410156,143.94464111328125,146.12991333007812,144.94296264648438,124.3636474609375,116.44393157958984,110.65692901611328
20,42,117,129,69,61,67,23,25,70,108,144,95,44,21,22,-11.083192825317383,75.26161193847656,33.30227279663086,16.572546005249023,-5.302927017211914,-27.16985511779785,32.32380294799805,28.49087905883789,-43.0678596496582,-49.881134033203125,-46.48118209838867,-32.1041145324707,144.1204376220703,145.37533569335938,144.93397521972656,124.53343963623047,116.61964416503906,110.80309295654297
20,41,119,140,62,56,72,23,25,75,87,127,96,43,23,23,-11.166969299316406,72.9645767211914,33.09621810913086,16.226802825927734,-5.6047282218933105,-27.389089584350586,32.14067840576172,24.18712615966797,-43.23714065551758,-50.10354995727539,-46.63691329956055,-32.21437072753906,144.3313446044922,143.31124877929688,144.85745239257812,124.72777557373047,116.84307098388672,111.07715606689453
22,42,122,149,61,60,67,25,23,74,83,119,79,38,23,23,-11.25708293914795,70.79015350341797,32.89154815673828,15.866827964782715,-5.851912021636963,-27.573760986328125,32.0196533203125,20.73309898376465,-43.32612228393555,-50.27735137939453,-46.67979049682617,-32.24657440185547,144.45274353027344,141.3556671142578,144.6501922607422,124.87197875976562,116.9688720703125,111.31403350830078
26,44,131,129,60,59,63,25,24,86,88,123,76,37,24,21,-11.380874633789062,68.20194244384766,32.61514663696289,15.44766902923584,-6.094305992126465,-27.869693756103516,31.8978271484375,17.144393920898438,-43.4834098815918,-50.45819854736328,-46.691131591796875,-32.311500549316406,144.55360412597656,139.14620971679688,144.58078002929688,125.02256774902344,117.10907745361328,111.63330078125
23,34,95,118,55,55,61,23,23,77,84,124,79,37,23,22,-11.557796478271484,63.66397476196289,32.21535110473633,14.928861618041992,-6.488809585571289,-28.171506881713867,31.877641677856445,11.975232124328613,-43.575355529785156,-50.49517059326172,-46.55900192260742,-32.18202590942383,144.59117126464844,135.35647583007812,144.40626525878906,125.09226989746094,117.24907684326172,112.02440643310547
27,50,132,137,55,53,59,26,25,100,99,140,88,41,22,21,-11.850090980529785,59.24528121948242,31.736679077148438,14.250158309936523,-7.015105724334717,-28.73691749572754,31.859403610229492,7.86704158782959,-43.62445068359375,-50.606544494628906,-46.481990814208984,-32.15214157104492,144.57569885253906,132.01736450195312,144.14674377441406,125.23133850097656,117.42865753173828,112.45455932617188
28,50,134,123,44,52,65,26,28,100,97,139,81,39,22,20,-11.956892967224121,57.919586181640625,31.577695846557617,14.017036437988281,-7.206306457519531,-28.921913146972656,31.856582641601562,6.758279800415039,-43.62957000732422,-50.65138626098633,-46.47939682006836,-32.146236419677734,144.55532836914062,131.09732055664062,144.05506896972656,125.2756118774414,117.48644256591797,112.5567626953125
28,53,149,113,59,55,65,26,27,106,99,140,81,37,22,19,-12.332656860351562,54.426177978515625,31.044952392578125,13.360511779785156,-7.815677642822266,-29.516326904296875,31.84267234802246,4.130791664123535,-43.681514739990234,-50.74674606323242,-46.509117126464844,-32.16160583496094,144.4521942138672,128.92880249023438,143.8818817138672,125.32855987548828,117.60005187988281,112.7503662109375
27,50,150,119,58,63,67,26,27,105,122,134,70,34,21,21,-12.56284236907959,52.00881576538086,30.72828483581543,13.009905815124512,-8.1583251953125,-29.85249137878418,31.851652145385742,2.536316156387329,-43.69027328491211,-50.75554656982422,-46.49597930908203,-32.137298583984375,144.37774658203125,127.569580078125,143.75123596191406,125.29112243652344,117.5925521850586,112.7696533203125
27,52,159,131,57,64,71,26,26,106,128,136,65,36,21,22,-12.75915241241455,49.77732849121094,30.500154495239258,12.738557815551758,-8.425025939941406,-30.09331512451172,31.864730834960938,1.222586750984192,-43.649505615234375,-50.745609283447266,-46.47930908203125,-32.097469329833984,144.30039978027344,126.36402130126953,143.5471954345703,125.2193832397461,117.54676055908203,112.71878814697266
27,39,132,112,63,69,78,26,28,82,117,119,51,31,22,22,-13.032089233398438,46.55450439453125,30.15542221069336,12.360644340515137,-8.770661354064941,-30.42270851135254,31.89683723449707,-0.4477827548980713,-43.62506866455078,-50.744720458984375,-46.44424819946289,-32.04624938964844,144.1013641357422,124.555908203125,143.31642150878906,125.08100891113281,117.38397216796875,112.54459381103516
27,42,129,106,65,72,72,28,25,81,118,118,58,37,22,21,-13.234505653381348,44.70085525512695,29.95890998840332,12.162322998046875,-8.955102920532227,-30.603870391845703,31.94663429260254,-1.182308316230774,-43.5611572265625,-50.69035720825195,-46.379695892333984,-31.980579376220703,143.98533630371094,123.5713882446289,143.172607421875,124.95935821533203,117.23877716064453,112.38851165771484
27,40,119,137,58,66,65,25,26,76,118,115,59,37,21,22,-13.393561363220215,43.107635498046875,29.830978393554688,12.044899940490723,-9.064464569091797,-30.709959030151367,31.995208740234375,-1.6943943500518799,-43.48804473876953,-50.621524810791016,-46.31108093261719,-31.913848876953125,143.8743438720703,122.68694305419922,143.0298309326172,124.82061767578125,117.08152770996094,112.21867370605469
28,42,131,140,56,57,66,25,29,89,114,95,60,37,20,18,-13.50947093963623,41.30336380004883,29.75835418701172,11.98877239227295,-9.113824844360352,-30.760467529296875,32.068397521972656,-2.173832416534424,-43.379886627197266,-50.50652313232422,-46.195098876953125,-31.80231475830078,143.71719360351562,121.60839080810547,142.7775421142578,124.5712661743164,116.81441497802734,111.95301818847656
30,42,125,130,57,61,67,26,32,89,99,91,59,33,20,16,-13.537853240966797,40.282379150390625,29.75883674621582,11.995162010192871,-9.109254837036133,-30.74317169189453,32.1093635559082,-2.396125078201294,-43.3160400390625,-50.43934631347656,-46.12417221069336,-31.727209091186523,143.60769653320312,120.9366226196289,142.5867156982422,124.3856430053711,116.6116714477539,111.75164031982422
28,39,124,128,54,64,69,26,29,85,111,130,68,32,18,18,-13.5465669631958,39.508609771728516,29.7972469329834,12.023453712463379,-9.082667350769043,-30.704204559326172,32.154945373535156,-2.4734294414520264,-43.23830795288086,-50.37779998779297,-46.049705505371094,-31.650270462036133,143.46575927734375,120.35394287109375,142.3439483642578,124.17243194580078,116.36506652832031,111.51055908203125
29,40,130,138,60,63,68,26,28,87,111,132,63,26,20,18,-13.58121395111084,38.24394989013672,29.92401885986328,12.08237361907959,-8.988483428955078,-30.603782653808594,32.22072219848633,-2.414754867553711,-43.085205078125,-50.30134963989258,-45.938201904296875,-31.546506881713867,143.17495727539062,119.23834228515625,141.85064697265625,123.76449584960938,115.88623809814453,111.05199432373047
28,42,138,107,61,58,66,27,30,101,113,170,113,37,20,20,-13.622382164001465,37.5399284362793,30.01645851135254,12.13410472869873,-8.937353134155273,-30.527587890625,32.2650146484375,-2.224210023880005,-42.973167419433594,-50.26848220825195,-45.90351486206055,-31.50052833557129,142.9861297607422,118.57328033447266,141.5601348876953,123.54985809326172,115.62338256835938,110.76388549804688
27,57,142,95,73,66,73,26,32,121,94,187,123,38,22,22,-13.6607666015625,36.93844223022461,30.068557739257812,12.18026065826416,-8.881141662597656,-30.45444679260254,32.30036544799805,-2.031247138977051,-42.90004348754883,-50.24840545654297,-45.875877380371094,-31.467241287231445,142.8313446044922,118.04190063476562,141.36578369140625,123.39031982421875,115.40628051757812,110.52117919921875
24,65,158,113,77,66,70,26,36,135,128,184,123,37,22,24,-13.741415977478027,35.7215690612793,30.075977325439453,12.23122501373291,-8.821050643920898,-30.404029846191406,32.29838562011719,-1.8074039220809937,-42.8763313293457,-50.25107192993164,-45.87545394897461,-31.488765716552734,142.67849731445312,117.20453643798828,141.21322631835938,123.20976257324219,115.1540298461914,110.26858520507812
24,70,171,124,73,59,60,25,42,149,131,159,116,36,23,24,-13.775081634521484,35.26420974731445,30.06911849975586,12.269274711608887,-8.79261302947998,-30.380611419677734,32.2850227355957,-1.7626343965530396,-42.880516052246094,-50.23874282836914,-45.87918472290039,-31.5051326751709,142.66256713867188,116.98029327392578,141.2108917236328,123.16259765625,115.09988403320312,110.2138900756836
22,69,181,126,68,58,62,26,43,149,143,159,119,39,21,23,-13.926263809204102,34.77115249633789,30.09036636352539,12.365507125854492,-8.698040008544922,-30.27683448791504,32.179542541503906,-1.6543246507644653,-42.878143310546875,-50.22670364379883,-45.89772415161133,-31.537153244018555,142.71189880371094,116.90386962890625,141.1317138671875,123.02496337890625,114.91515350341797,109.98519134521484
23,77,180,149,71,66,68,26,49,158,145,117,74,31,22,23,-14.180989265441895,34.52419662475586,30.012365341186523,12.449400901794434,-8.573698997497559,-30.117460250854492,32.01023483276367,-1.5846664905548096,-42.89878463745117,-50.24425506591797,-45.930992126464844,-31.576889038085938,142.88751220703125,117.35153198242188,141.17945861816406,123.01919555664062,114.76343536376953,109.70767211914062
22,70,169,148,60,61,60,26,48,140,152,92,60,29,22,23,-14.753515243530273,34.22874450683594,29.801485061645508,12.540007591247559,-8.337723731994629,-29.75497817993164,31.635068893432617,-1.630964994430542,-42.819889068603516,-50.360252380371094,-46.09267044067383,-31.72289276123047,143.42994689941406,119.65185546875,141.49359130859375,123.52946472167969,114.87425994873047,109.38243865966797
26,71,201,154,58,60,61,27,50,140,128,94,62,31,23,22,-14.942967414855957,34.434967041015625,29.761449813842773,12.624791145324707,-8.2880277633667,-29.60089111328125,31.50296974182129,-1.674993872642517,-42.6247673034668,-50.30522155761719,-46.18678665161133,-31.776931762695312,143.70663452148438,122.29325866699219,141.4931182861328,123.79964447021484,115.10737609863281,109.36426544189453
25,68,218,156,59,58,60,26,47,148,118,108,63,30,23,22,-15.072663307189941,35.44851303100586,29.64217185974121,12.579117774963379,-8.34931468963623,-29.524600982666016,31.40370750427246,-1.5176469087600708,-42.47047424316406,-50.27894973754883,-46.24455261230469,-31.747148513793945,144.07290649414062,126.52278137207031,141.53558349609375,124.13841247558594,115.3919906616211,109.40768432617188
30,77,209,145,61,62,65,23,50,172,124,110,65,29,23,24,-15.21693229675293,37.291934967041016,29.518346786499023,12.518548011779785,-8.459171295166016,-29.466121673583984,31.315011978149414,-0.8839316368103027,-42.240047454833984,-50.20711898803711,-46.313385009765625,-31.711437225341797,144.495849609375,133.37437438964844,141.62339782714844,124.55938720703125,115.8018798828125,109.51795196533203
30,67,201,119,51,54,61,20,45,156,118,106,58,30,22,23,-15.264060974121094,38.38252258300781,29.350135803222656,12.445061683654785,-8.565534591674805,-29.45331573486328,31.260143280029297,-0.3355317711830139,-42.24173355102539,-50.18855285644531,-46.35322570800781,-31.666414260864258,144.827392578125,138.10653686523438,141.92393493652344,124.88963317871094,116.10556030273438,109.64187622070312
31,65,202,129,53,53,58,23,42,151,129,98,56,34,22,22,-15.279452323913574,39.39418029785156,29.189748764038086,12.338201522827148,-8.677029609680176,-29.463096618652344,31.213842391967773,0.5517503619194031,-42.29519271850586,-50.205848693847656,-46.37834167480469,-31.61415672302246,145.1073455810547,142.9555206298828,142.20346069335938,125.15789794921875,116.33373260498047,109.74044036865234
28,60,172,113,55,55,61,23,37,150,136,96,53,34,21,22,-15.358319282531738,40.087215423583984,28.90869903564453,12.086002349853516,-8.894501686096191,-29.589059829711914,31.183094024658203,1.7148678302764893,-42.41865921020508,-50.255035400390625,-46.37151336669922,-31.542186737060547,145.47390747070312,148.4280242919922,142.681396484375,125.54208374023438,116.62060546875,109.94440460205078
33,68,156,110,54,56,60,24,37,150,146,86,54,36,21,22,-15.36435317993164,40.27386474609375,28.73675537109375,11.916300773620605,-9.037199974060059,-29.719192504882812,31.199108123779297,2.453521728515625,-42.50042724609375,-50.25770950317383,-46.3159294128418,-31.467815399169922,145.71951293945312,151.41285705566406,142.95755004882812,125.7475357055664,116.79320526123047,110.13775634765625
29,57,159,113,51,44,48,24,34,123,130,96,46,33,21,22,-15.4323148727417,40.232261657714844,28.422561645507812,11.500863075256348,-9.424068450927734,-30.103857040405273,31.24915313720703,3.674516201019287,-42.606475830078125,-50.26872253417969,-46.230934143066406,-31.357675552368164,146.14581298828125,155.91062927246094,143.37982177734375,126.10636138916016,117.16329193115234,110.5980224609375
29,61,160,116,56,51,51,29,34,121,135,101,47,31,20,23,-15.439082145690918,40.187294006347656,28.34645652770996,11.378990173339844,-9.53480339050293,-30.212316513061523,31.271841049194336,3.9220919609069824,-42.628658294677734,-50.277408599853516,-46.206138610839844,-31.32174301147461,146.23974609375,156.7944793701172,143.4609375,126.19107818603516,117.25209045410156,110.71426391601562
28,61,168,119,60,51,56,26,35,121,132,102,46,28,21,22,-15.458098411560059,40.16446304321289,28.22789764404297,11.185507774353027,-9.721047401428223,-30.41118621826172,31.312936782836914,4.4769792556762695,-42.66098403930664,-50.267120361328125,-46.153533935546875,-31.26332664489746,146.41220092773438,158.4810333251953,143.61839294433594,126.32394409179688,117.41280364990234,110.93891143798828
28,57,159,124,58,46,50,28,35,111,122,110,46,26,22,22,-15.482332229614258,40.141845703125,28.147228240966797,11.035449981689453,-9.833946228027344,-30.577272415161133,31.340917587280273,5.032652378082275,-42.67931365966797,-50.254119873046875,-46.09086227416992,-31.225385665893555,146.5507049560547,159.96238708496094,143.73480224609375,126.42070770263672,117.52623748779297,111.12960815429688
28,66,177,116,57,48,53,29,32,94,118,110,51,31,22,22,-15.484119415283203,40.13935089111328,28.057161331176758,10.873893737792969,-10.024457931518555,-30.79524803161621,31.382091522216797,5.735340118408203,-42.70587158203125,-50.20290756225586,-46.03181838989258,-31.169822692871094,146.716064453125,161.7576446533203,143.85720825195312,126.48441314697266,117.67992401123047,111.37566375732422
28,69,180,119,60,51,57,30,30,93,136,113,57,32,22,22,-15.482095718383789,40.134178161621094,28.033967971801758,10.827678680419922,-10.050180435180664,-30.854658126831055,31.391572952270508,5.936692237854004,-42.71498107910156,-50.19113540649414,-45.99335479736328,-31.152700424194336,146.7628173828125,162.2657470703125,143.88589477539062,126.5008316040039,117.69999694824219,111.44389343261719
26,66,177,121,54,49,59,25,28,94,133,106,60,35,24,21,-15.508880615234375,40.11763000488281,27.972707748413086,10.694540023803711,-10.182680130004883,-31.005586624145508,31.410308837890625,6.4564337730407715,-42.7286376953125,-50.15870666503906,-45.94260787963867,-31.125825881958008,146.86019897460938,163.47616577148438,143.95416259765625,126.5363540649414,117.79170989990234,111.63447570800781
29,67,167,115,44,49,62,27,32,94,129,105,56,34,23,21,-15.506591796875,40.06610870361328,27.909915924072266,10.603538513183594,-10.304628372192383,-31.157791137695312,31.43951416015625,6.807661533355713,-42.74877166748047,-50.09610366821289,-45.8832893371582,-31.092010498046875,146.95191955566406,164.34326171875,144.0196533203125,126.54071044921875,117.87567901611328,111.82247161865234
28,73,183,130,46,55,60,25,32,103,133,108,59,36,23,20,-15.501452445983887,40.048370361328125,27.89411163330078,10.578060150146484,-10.336246490478516,-31.210222244262695,31.450454711914062,6.928265571594238,-42.75384521484375,-50.070926666259766,-45.85681915283203,-31.079544067382812,146.98056030273438,164.6261749267578,144.0361785888672,126.53416442871094,117.89423370361328,111.88105010986328
23,56,141,145,50,56,60,25,31,95,139,111,59,33,23,21,-15.48851490020752,40.01078414916992,27.86907386779785,10.511574745178223,-10.40627670288086,-31.32488250732422,31.477325439453125,7.24446439743042,-42.76060104370117,-50.012088775634766,-45.778594970703125,-31.04300880432129,147.0489501953125,165.36378479003906,144.07223510742188,126.51911163330078,117.9252700805664,112.02871704101562
22,55,135,149,50,59,68,24,36,96,128,97,53,31,24,19,-15.498669624328613,39.98597717285156,27.869430541992188,10.498623847961426,-10.434786796569824,-31.340824127197266,31.485414505004883,7.519724369049072,-42.75631332397461,-49.94761657714844,-45.73024368286133,-31.015214920043945,147.08079528808594,165.95022583007812,144.09280395507812,126.47348022460938,117.93772888183594,112.11228942871094
24,64,148,144,53,58,70,25,39,99,141,110,54,29,24,21,-15.494991302490234,39.980133056640625,27.870288848876953,10.488186836242676,-10.446684837341309,-31.362590789794922,31.489696502685547,7.584778308868408,-42.755653381347656,-49.930049896240234,-45.7127571105957,-31.008544921875,147.09597778320312,166.11566162109375,144.0994110107422,126.46562957763672,117.94677734375,112.1491470336914
23,64,172,146,58,60,67,30,37,93,132,118,60,33,25,21,-15.496369361877441,39.97821044921875,27.881452560424805,10.467409133911133,-10.463909149169922,-31.405868530273438,31.500516891479492,7.787952899932861,-42.743717193603516,-49.87419128417969,-45.65398406982422,-30.992034912109375,147.1332550048828,166.5576934814453,144.1212615966797,126.4384994506836,117.95791625976562,112.25072479248047
32,178,154,138,57,56,67,33,45,88,124,128,62,33,38,23,-15.50774097442627,39.96074676513672,27.924585342407227,10.45215129852295,-10.45883846282959,-31.422157287597656,31.508317947387695,7.869536399841309,-42.7139778137207,-49.8318977355957,-45.592166900634766,-30.977840423583984,147.1520233154297,166.75152587890625,144.13351440429688,126.42089080810547,117.94517517089844,112.32689666748047
47,207,167,121,57,53,68,35,52,105,106,121,63,37,46,27,-15.506831169128418,39.9611701965332,27.932193756103516,10.45057487487793,-10.463053703308105,-31.43337631225586,31.51370620727539,7.889042377471924,-42.70903778076172,-49.81117630004883,-45.573646545410156,-30.971649169921875,147.1588897705078,166.7987518310547,144.14285278320312,126.40921020507812,117.94757843017578,112.35572814941406
51,237,190,122,60,62,71,37,51,118,135,135,67,40,46,28,-15.50420093536377,39.963523864746094,27.954057693481445,10.430262565612793,-10.472936630249023,-31.458961486816406,31.52703285217285,7.951459884643555,-42.69401550292969,-49.773014068603516,-45.51127243041992,-30.945911407470703,147.1785125732422,166.943359375,144.15109252929688,126.39405059814453,117.93617248535156,112.42888641357422
53,241,194,130,61,62,72,37,51,125,122,131,68,40,47,26,-15.511751174926758,39.97005844116211,27.964557647705078,10.413336753845215,-10.470669746398926,-31.473281860351562,31.532392501831055,7.986962795257568,-42.68272399902344,-49.75560760498047,-45.47087097167969,-30.933244705200195,147.1878204345703,166.99061584472656,144.149169921875,126.38980865478516,117.9251480102539,112.471435546875
52,243,167,115,57,58,68,32,51,131,117,127,71,38,47,27,-15.525918960571289,39.99495315551758,27.959007263183594,10.38327693939209,-10.486042976379395,-31.44769859313965,31.535003662109375,8.034247398376465,-42.675880432128906,-49.748695373535156,-45.446189880371094,-30.898344039916992,147.19351196289062,167.0412139892578,144.13980102539062,126.39127349853516,117.9264907836914,112.48799896240234
50,177,163,123,63,58,68,31,42,124,116,122,75,39,39,26,-15.539288520812988,40.072078704833984,27.970882415771484,10.40842342376709,-10.45186710357666,-31.434906005859375,31.52685546875,8.11855411529541,-42.669185638427734,-49.69436264038086,-45.391056060791016,-30.87468910217285,147.20068359375,167.1662139892578,144.1133575439453,126.32965850830078,117.89216613769531,112.50936126708984
36,141,149,134,64,58,66,28,34,114,117,132,75,36,28,21,-15.547401428222656,40.14585494995117,27.973175048828125,10.398579597473145,-10.451010704040527,-31.487773895263672,31.505348205566406,8.137401580810547,-42.681121826171875,-49.68869400024414,-45.38023376464844,-30.89704704284668,147.19981384277344,167.19485473632812,144.0714111328125,126.28775787353516,117.87381744384766,112.5394287109375
31,86,112,126,60,46,55,26,33,97,77,121,73,34,29,20,-15.548379898071289,40.2164306640625,27.976682662963867,10.368833541870117,-10.444049835205078,-31.515460968017578,31.48642349243164,8.117169380187988,-42.69344711303711,-49.706260681152344,-45.36777877807617,-30.907573699951172,147.19436645507812,167.1609344482422,144.02597045898438,126.2669677734375,117.85224914550781,112.5567855834961
27,71,88,126,60,44,47,26,28,80,93,142,75,32,26,20,-15.548290252685547,40.47396469116211,27.942995071411133,10.295754432678223,-10.48192024230957,-31.5488224029541,31.43329620361328,7.854790210723877,-42.764034271240234,-49.76054382324219,-45.391868591308594,-30.930652618408203,147.15550231933594,166.70408630371094,143.92901611328125,126.19035339355469,117.80928802490234,112.56029510498047
30,60,116,170,67,47,51,27,26,73,128,143,79,32,25,18,-15.538925170898438,40.76502227783203,27.919321060180664,10.225915908813477,-10.55606746673584,-31.618515014648438,31.34820556640625,7.235511302947998,-42.8651123046875,-49.848365783691406,-45.47427749633789,-31.007539749145508,147.07406616210938,165.50404357910156,143.76254272460938,126.06077575683594,117.74761962890625,112.55441284179688
26,55,110,158,60,44,53,25,27,71,131,140,77,31,24,19,-15.46112060546875,41.06106948852539,27.913984298706055,10.070725440979004,-10.710382461547852,-31.755395889282227,31.165685653686523,5.2761077880859375,-43.092227935791016,-50.08362579345703,-45.66958999633789,-31.180646896362305,146.84693908691406,161.6315155029297,143.34498596191406,125.77787017822266,117.59549713134766,112.53226470947266
27,54,108,146,54,46,64,23,26,53,131,130,73,30,24,17,-15.369020462036133,41.08698654174805,27.94001579284668,9.953731536865234,-10.84311294555664,-31.86313819885254,31.027759552001953,3.571779489517212,-43.273677825927734,-50.27122116088867,-45.83053970336914,-31.31476402282715,146.61752319335938,157.937255859375,142.94329833984375,125.49970245361328,117.45308685302734,112.51030731201172
27,45,114,151,60,48,59,23,24,53,126,152,76,32,22,19,-15.273717880249023,40.864192962646484,27.974998474121094,9.866802215576172,-10.931406021118164,-31.98291015625,30.932859420776367,1.7847933769226074,-43.43260192871094,-50.406272888183594,-45.936370849609375,-31.434499740600586,146.38214111328125,153.6353302001953,142.60910034179688,125.21992492675781,117.30388641357422,112.5116958618164
27,46,127,171,68,50,62,23,24,57,115,153,92,36,24,19,-15.091493606567383,40.165794372558594,28.098033905029297,9.811982154846191,-11.001476287841797,-32.1185302734375,30.80797004699707,-0.6382256746292114,-43.638145446777344,-50.56649398803711,-46.07066345214844,-31.6081485748291,145.915283203125,146.84976196289062,141.94061279296875,124.64984893798828,116.98550415039062,112.46852111816406
25,44,103,133,60,49,62,24,24,63,76,151,82,34,24,21,-15.008718490600586,39.86444854736328,28.141300201416016,9.806111335754395,-11.007227897644043,-32.14078140258789,30.791549682617188,-1.3113999366760254,-43.69627380371094,-50.60430145263672,-46.09360885620117,-31.637941360473633,145.7755889892578,144.7677001953125,141.76263427734375,124.49285888671875,116.89949035644531,112.46227264404297
28,63,119,128,58,53,73,25,23,73,88,148,81,36,23,23,-14.798033714294434,38.96500778198242,28.29440689086914,9.855324745178223,-10.989460945129395,-32.180870056152344,30.766071319580078,-2.8229317665100098,-43.803565979003906,-50.65065002441406,-46.13252639770508,-31.702974319458008,145.3638916015625,139.12698364257812,141.19480895996094,123.97949981689453,116.60176849365234,112.38180541992188
39,74,131,149,62,56,67,26,27,79,98,157,83,38,22,25,-14.64177417755127,38.345909118652344,28.461782455444336,9.99955940246582,-10.911530494689941,-32.1487922668457,30.784603118896484,-3.6387295722961426,-43.834808349609375,-50.612178802490234,-46.12996292114258,-31.734233856201172,145.0364227294922,134.76931762695312,140.8340606689453,123.56713104248047,116.33831024169922,112.2621841430664
43,77,148,153,55,51,66,28,25,80,96,133,80,36,21,25,-14.607693672180176,38.20185470581055,28.548282623291016,10.111823081970215,-10.831263542175293,-32.08213806152344,30.79372787475586,-3.8656609058380127,-43.80439376831055,-50.571861267089844,-46.10804748535156,-31.731658935546875,144.88815307617188,132.77447509765625,140.62942504882812,123.36763763427734,116.164794921875,112.12916564941406
42,79,144,127,49,54,68,27,27,88,93,105,58,33,20,26,-14.587798118591309,38.16435623168945,28.599040985107422,10.216421127319336,-10.736812591552734,-32.013648986816406,30.804895401000977,-3.938641309738159,-43.78258514404297,-50.539981842041016,-46.07598876953125,-31.72681999206543,144.7843780517578,131.2529754638672,140.4979248046875,123.23652648925781,116.01832580566406,112.01344299316406
42,108,146,126,52,58,78,25,29,82,106,102,59,34,22,26,-14.5843505859375,38.12732696533203,28.69454574584961,10.354093551635742,-10.574857711791992,-31.88213348388672,30.827770233154297,-3.9388678073883057,-43.71380615234375,-50.49587631225586,-46.00883102416992,-31.69685173034668,144.6734619140625,129.312255859375,140.32884216308594,123.08607482910156,115.80403900146484,111.82344818115234
43,105,133,136,56,64,74,27,31,75,99,102,65,33,22,25,-14.589860916137695,38.11064147949219,28.716552734375,10.392068862915039,-10.522083282470703,-31.837377548217773,30.833494186401367,-3.908198118209839,-43.69914245605469,-50.49043273925781,-45.98917770385742,-31.688556671142578,144.64111328125,128.66941833496094,140.29649353027344,123.053955078125,115.73756408691406,111.759033203125
32,99,136,112,55,62,71,27,29,74,87,96,69,29,22,24,-14.599592208862305,38.01630783081055,28.74072265625,10.458724975585938,-10.41646671295166,-31.72312355041504,30.84748077392578,-3.8321971893310547,-43.688961029052734,-50.50257873535156,-45.95827865600586,-31.6558780670166,144.5738983154297,127.03512573242188,140.2530059814453,123.00040435791016,115.58521270751953,111.57640838623047
28,97,122,106,62,66,77,26,35,80,95,114,72,37,23,24,-14.601318359375,37.95656204223633,28.7450008392334,10.481571197509766,-10.362186431884766,-31.657249450683594,30.858675003051758,-3.7560622692108154,-43.686424255371094,-50.539798736572266,-45.95240783691406,-31.632183074951172,144.53990173339844,125.94029235839844,140.21957397460938,122.99830627441406,115.49136352539062,111.4385986328125
29,97,131,106,56,61,74,26,33,82,117,123,70,37,23,22,-14.601231575012207,37.94292068481445,28.740619659423828,10.493511199951172,-10.346710205078125,-31.63524627685547,30.86294937133789,-3.7259860038757324,-43.69055938720703,-50.54261779785156,-45.95231246948242,-31.625425338745117,144.53024291992188,125.68541717529297,140.21923828125,122.98802185058594,115.46562194824219,111.39778137207031
31,66,135,116,56,59,62,28,33,87,145,136,78,38,23,23,-14.598347663879395,37.87417221069336,28.74601173400879,10.513014793395996,-10.301490783691406,-31.604921340942383,30.875457763671875,-3.6357030868530273,-43.689205169677734,-50.57380676269531,-45.956932067871094,-31.619211196899414,144.50167846679688,125.04460144042969,140.19873046875,122.9803237915039,115.39306640625,111.280517578125
28,57,137,97,53,48,56,25,31,84,144,132,67,38,25,23,-14.584006309509277,37.758056640625,28.762197494506836,10.537785530090332,-10.253035545349121,-31.565000534057617,30.888023376464844,-3.5865426063537598,-43.6865234375,-50.59592056274414,-45.95447540283203,-31.60887908935547,144.4745635986328,124.57516479492188,140.18467712402344,122.9714126586914,115.3286361694336,111.18119049072266
29,57,122,102,53,51,59,29,31,81,143,124,60,38,26,21,-14.573029518127441,37.622825622558594,28.768590927124023,10.569480895996094,-10.232352256774902,-31.512155532836914,30.896785736083984,-3.5384013652801514,-43.693382263183594,-50.613555908203125,-45.97823715209961,-31.591358184814453,144.4483184814453,124.12743377685547,140.17984008789062,122.95499420166016,115.29306030273438,111.07527923583984
30,68,115,94,47,53,58,28,27,86,139,103,56,30,25,20,-14.57088565826416,37.327049255371094,28.769712448120117,10.558626174926758,-10.227294921875,-31.467666625976562,30.901166915893555,-3.4910385608673096,-43.71094512939453,-50.68054962158203,-46.02640151977539,-31.591768264770508,144.41409301757812,123.48108673095703,140.18287658691406,122.97528076171875,115.25859069824219,110.96058654785156
40,103,106,103,59,61,56,28,32,91,143,99,58,31,23,21,-14.563864707946777,36.92695617675781,28.77528953552246,10.579983711242676,-10.19896125793457,-31.39613151550293,30.899457931518555,-3.494553565979004,-43.73082733154297,-50.71266555786133,-46.04212188720703,-31.57857322692871,144.3845672607422,122.90119171142578,140.18505859375,122.96717834472656,115.19975280761719,110.85987091064453
42,106,102,91,63,60,59,26,32,92,107,91,54,34,22,18,-14.548501014709473,36.51376724243164,28.814929962158203,10.627666473388672,-10.144439697265625,-31.34416389465332,30.88971710205078,-3.4922571182250977,-43.746334075927734,-50.74858093261719,-46.06367111206055,-31.597980499267578,144.33258056640625,122.28271484375,140.15892028808594,122.9288558959961,115.1103744506836,110.7474594116211
43,121,97,107,68,61,57,27,33,95,129,96,59,37,23,20,-14.50346851348877,35.93997573852539,28.925159454345703,10.768128395080566,-10.00545597076416,-31.245338439941406,30.858230590820312,-3.4670088291168213,-43.76673126220703,-50.75309371948242,-46.075462341308594,-31.636354446411133,144.22906494140625,121.4284896850586,140.0506591796875,122.74327087402344,114.89691162109375,110.5387954711914
43,123,96,120,66,57,53,22,33,96,134,105,58,37,22,21,-14.486696243286133,35.743370056152344,28.98040008544922,10.812204360961914,-9.950692176818848,-31.21584129333496,30.848915100097656,-3.4467852115631104,-43.75535202026367,-50.76016616821289,-46.07196807861328,-31.64751434326172,144.17835998535156,121.13468170166016,139.96060180664062,122.66757202148438,114.79891967773438,110.4509048461914
43,118,105,123,64,57,54,23,34,85,141,105,58,38,22,22,-14.432089805603027,35.537879943847656,29.139488220214844,11.004996299743652,-9.764815330505371,-31.080577850341797,30.81229019165039,-3.4022140502929688,-43.75989532470703,-50.75962829589844,-46.094112396240234,-31.710859298706055,143.9140625,120.5301513671875,139.73614501953125,122.37371063232422,114.48767852783203,110.1478271484375
36,87,97,119,52,47,51,23,34,70,116,91,55,36,24,22,-14.27807903289795,35.40968322753906,29.494417190551758,11.352521896362305,-9.436165809631348,-30.814668655395508,30.780107498168945,-3.2973241806030273,-43.720741271972656,-50.75141143798828,-46.122806549072266,-31.800146102905273,143.41700744628906,119.557861328125,139.25271606445312,121.8423080444336,113.95906829833984,109.65912628173828
31,87,129,141,49,50,58,24,32,67,130,84,55,31,22,22,-14.062185287475586,35.595794677734375,29.905508041381836,11.684207916259766,-9.085434913635254,-30.52724838256836,30.780532836914062,-3.110501527786255,-43.642574310302734,-50.77021026611328,-46.132354736328125,-31.871280670166016,142.97586059570312,118.8417739868164,138.7886199951172,121.4280776977539,113.50831604003906,109.26712799072266
31,68,144,146,43,50,60,24,31,66,130,86,58,26,20,21,-13.819441795349121,35.98833084106445,30.2968807220459,12.066085815429688,-8.707952499389648,-30.22504234313965,30.768762588500977,-2.8758246898651123,-43.64339828491211,-50.79623031616211,-46.151676177978516,-31.95716094970703,142.5930633544922,118.2265396118164,138.50680541992188,121.06611633300781,113.09992980957031,108.92483520507812
32,75,160,151,44,53,60,25,33,70,136,83,67,28,21,22,-13.491958618164062,37.15901184082031,30.83443260192871,12.57934284210205,-8.245595932006836,-29.786928176879883,30.767650604248047,-2.3937203884124756,-43.60733413696289,-50.81198501586914,-46.21305465698242,-32.05849075317383,142.0856170654297,117.76119232177734,138.11976623535156,120.59404754638672,112.62201690673828,108.48059844970703
32,82,179,150,43,48,58,25,33,81,176,95,68,29,21,22,-12.736116409301758,40.77552032470703,31.690937042236328,13.30323314666748,-7.572089672088623,-29.192646026611328,31.027435302734375,-0.8485544919967651,-43.50874328613281,-50.80242919921875,-46.16338348388672,-32.049015045166016,141.1329803466797,117.57933044433594,137.60594177246094,119.91474914550781,111.88612365722656,107.85016632080078
