Channel_1,Channel_2,Channel_3,Channel_4,Channel_5,Channel_6,Channel_7,Channel_8,Channel_9,Channel_10,Channel_11,Channel_12,Channel_13,Channel_14,Channel_15,Channel_16,Palm_tip_x,Thumb_tip_x,Index_tip_x,Middle_tip_x,Ring_tip_x,Pinky_tip_x,Palm_tip_y,Thumb_tip_y,Index_tip_y,Middle_tip_y,Ring_tip_y,Pinky_tip_y,Palm_tip_z,Thumb_tip_z,Index_tip_z,Middle_tip_z,Ring_tip_z,Pinky_tip_z
28,60,178,137,61,40,31,22,31.0,78.0,179.0,161.0,83.0,31.0,19.0,17.0,-21.243854522705078,34.29161834716797,22.495521545410156,-0.2070753425359726,-23.739269256591797,-44.211124420166016,38.92313003540039,8.35045337677002,-36.672607421875,-47.62151336669922,-44.63165283203125,-28.471904754638672,136.7007293701172,112.22367858886719,128.8756561279297,117.54830169677734,113.62158203125,109.70555877685547
26,59,157,129,61,40,32,21,30.0,82.0,177.0,147.0,74.0,28.0,19.0,18.0,-21.180957794189453,34.337921142578125,22.537858963012695,-0.1659810096025467,-23.708770751953125,-44.13710403442383,38.867733001708984,8.296928405761719,-36.727291107177734,-47.65062713623047,-44.66619873046875,-28.47258758544922,136.8701934814453,112.31092071533203,128.9693145751953,117.62894439697266,113.73731231689453,109.79817962646484
25,59,158,134,57,37,32,22,27.0,84.0,178.0,154.0,76.0,25.0,18.0,17.0,-21.154870986938477,34.34274673461914,22.544086456298828,-0.16724945604801178,-23.71304702758789,-44.12275314331055,38.81168746948242,8.242392539978027,-36.78704071044922,-47.69622039794922,-44.706443786621094,-28.495471954345703,136.96763610839844,112.34971618652344,128.99847412109375,117.6602554321289,113.78475189208984,109.84837341308594
23,61,154,94,41,30,28,19,28.0,83.0,171.0,159.0,88.0,28.0,17.0,17.0,-21.13711166381836,34.33955764770508,22.478111267089844,-0.23712623119354248,-23.77359390258789,-44.14918899536133,38.600555419921875,8.018061637878418,-37.02840805053711,-47.88286590576172,-44.85993194580078,-28.610387802124023,137.25796508789062,112.57023620605469,129.14817810058594,117.77436065673828,113.89765167236328,109.97708892822266
18,57,154,111,44,33,30,19,28.0,84.0,165.0,130.0,80.0,29.0,18.0,18.0,-21.160551071166992,34.294525146484375,22.368886947631836,-0.351339727640152,-23.87725257873535,-44.21999740600586,38.34522247314453,7.750382900238037,-37.31466293334961,-48.115745544433594,-45.05589294433594,-28.76797103881836,137.55233764648438,112.81754302978516,129.29547119140625,117.88411712646484,114.00171661376953,110.09624481201172
18,49,149,133,49,30,29,18,28.0,97.0,155.0,134.0,76.0,26.0,17.0,17.0,-21.168872833251953,34.26002502441406,22.299907684326172,-0.4271191358566284,-23.950801849365234,-44.26504898071289,38.076141357421875,7.498534679412842,-37.598445892333984,-48.3516731262207,-45.2658576965332,-28.948030471801758,137.80311584472656,112.97962188720703,129.35870361328125,117.92150115966797,114.05411529541016,110.18660736083984
23,48,155,143,59,34,28,20,27.0,93.0,153.0,136.0,77.0,28.0,21.0,18.0,-21.169849395751953,34.2382926940918,22.260173797607422,-0.47757747769355774,-23.98526954650879,-44.29100036621094,37.84109115600586,7.287990570068359,-37.83973693847656,-48.55577087402344,-45.4454231262207,-29.11209487915039,138.0250701904297,113.11266326904297,129.4119873046875,117.9572982788086,114.10419464111328,110.28187561035156
25,50,149,159,64,35,28,19,28.0,90.0,149.0,117.0,74.0,31.0,26.0,23.0,-21.15703582763672,34.22566223144531,22.239547729492188,-0.5135987401008606,-24.01493263244629,-44.297428131103516,37.64851379394531,7.105990886688232,-38.04764175415039,-48.72873306274414,-45.602996826171875,-29.249557495117188,138.20997619628906,113.226318359375,129.47705078125,118.00078582763672,114.17325592041016,110.38339233398438
28,53,150,158,66,35,28,20,26.0,96.0,153.0,109.0,60.0,29.0,27.0,23.0,-21.116840362548828,34.22190475463867,22.24652671813965,-0.5368529558181763,-24.02351951599121,-44.2816162109375,37.394386291503906,6.8690056800842285,-38.33812713623047,-48.95561218261719,-45.83308029174805,-29.45461082458496,138.4451446533203,113.34684753417969,129.5887451171875,118.05224609375,114.30804443359375,110.56300354003906
29,60,146,141,64,33,26,20,25.0,96.0,178.0,104.0,49.0,28.0,27.0,24.0,-21.07259178161621,34.228294372558594,22.266849517822266,-0.5263870358467102,-24.007762908935547,-44.25442123413086,37.2293701171875,6.714430809020996,-38.52302551269531,-49.109683990478516,-45.98513412475586,-29.61118507385254,138.58457946777344,113.40354919433594,129.64584350585938,118.09123992919922,114.39452362060547,110.71588134765625
29,55,124,125,59,33,26,24,26.0,88.0,163.0,106.0,49.0,27.0,28.0,26.0,-20.99092674255371,34.246280670166016,22.291576385498047,-0.5134558081626892,-23.996261596679688,-44.22634506225586,37.02312469482422,6.496181011199951,-38.76325225830078,-49.31563186645508,-46.18095779418945,-29.792516708374023,138.70127868652344,113.41886138916016,129.66134643554688,118.10971069335938,114.46552276611328,110.83570861816406
28,58,126,143,60,34,27,25,27.0,96.0,161.0,115.0,53.0,25.0,25.0,25.0,-20.9022274017334,34.27219009399414,22.3199405670166,-0.48416808247566223,-23.981700897216797,-44.18589401245117,36.64727783203125,6.144059181213379,-39.1749382019043,-49.67534637451172,-46.538978576660156,-30.124162673950195,138.885498046875,113.44659423828125,129.67803955078125,118.113525390625,114.54144287109375,110.9739761352539
29,63,123,129,58,38,31,30,26.0,92.0,155.0,129.0,62.0,25.0,21.0,21.0,-20.819135665893555,34.307315826416016,22.338035583496094,-0.47263967990875244,-23.971996307373047,-44.15751647949219,36.39195251464844,5.878998279571533,-39.470611572265625,-49.94136428833008,-46.7894401550293,-30.357393264770508,138.96849060058594,113.44091033935547,129.68307495117188,118.11865234375,114.58032989501953,111.054931640625
26,64,135,134,58,40,32,29,30.0,93.0,186.0,132.0,67.0,28.0,22.0,22.0,-20.699798583984375,34.37260818481445,22.403564453125,-0.4195023477077484,-23.921762466430664,-44.09878158569336,36.09861755371094,5.580903053283691,-39.790443420410156,-50.23614501953125,-47.0688362121582,-30.62563705444336,138.9998779296875,113.36541748046875,129.6133270263672,118.0653305053711,114.55907440185547,111.08073425292969
25,55,127,132,63,41,33,29,31.0,103.0,193.0,132.0,72.0,27.0,23.0,24.0,-20.2316837310791,34.6845817565918,22.69487190246582,-0.18316061794757843,-23.682897567749023,-43.85214614868164,35.42987060546875,4.833873271942139,-40.54447937011719,-50.928001403808594,-47.710357666015625,-31.23397445678711,138.8904571533203,113.0329818725586,129.3089599609375,117.8132095336914,114.38824462890625,111.00399780273438
24,55,116,136,64,45,35,27,33.0,102.0,224.0,131.0,72.0,28.0,22.0,24.0,-19.837217330932617,34.98638916015625,23.02198600769043,0.10794439166784286,-23.396238327026367,-43.565364837646484,34.8984260559082,4.27061653137207,-41.1024169921875,-51.47032165527344,-48.24001693725586,-31.751911163330078,138.7325897216797,112.7332763671875,129.04483032226562,117.60374450683594,114.2401351928711,110.90583038330078
23,56,159,110,57,41,32,25,37.0,121.0,234.0,130.0,66.0,28.0,24.0,23.0,-19.4018497467041,35.33363723754883,23.406890869140625,0.4629892408847809,-23.029478073120117,-43.21457290649414,34.430335998535156,3.753025531768799,-41.59626388549805,-51.96311950683594,-48.71834945678711,-32.23432540893555,138.4569549560547,112.34718322753906,128.7423553466797,117.3665542602539,114.04000091552734,110.74961853027344
24,59,164,107,54,38,27,21,39.0,137.0,254.0,122.0,59.0,26.0,24.0,25.0,-18.53367805480957,36.02510452270508,24.12505531311035,1.1616685390472412,-22.308624267578125,-42.56583023071289,33.8055419921875,2.902393341064453,-42.32846450805664,-52.67034912109375,-49.38813781738281,-32.939273834228516,137.68849182128906,111.5101089477539,128.18746948242188,116.90849304199219,113.60567474365234,110.3791732788086
24,56,178,133,53,36,25,19,38.0,135.0,251.0,119.0,51.0,23.0,22.0,26.0,-17.927175521850586,36.52938461303711,24.6801700592041,1.698272466659546,-21.69487190246582,-42.033084869384766,33.42591094970703,2.4494097232818604,-42.72509765625,-53.064796447753906,-49.70200729370117,-33.308284759521484,137.22586059570312,110.93656158447266,127.71237182617188,116.52197265625,113.14540100097656,110.02403259277344
26,57,204,136,50,38,23,21,37.0,133.0,232.0,129.0,45.0,23.0,22.0,24.0,-17.374671936035156,37.01124572753906,25.242307662963867,2.2730610370635986,-21.117719650268555,-41.494384765625,33.092926025390625,2.133946418762207,-43.020198822021484,-53.33293151855469,-49.976158142089844,-33.59822463989258,136.8418731689453,110.38496398925781,127.18590545654297,116.02593994140625,112.69775390625,109.6244125366211
25,60,208,129,48,33,20,21,35.0,135.0,203.0,118.0,42.0,21.0,21.0,23.0,-16.576757431030273,37.731475830078125,26.03467559814453,3.106220245361328,-20.262399673461914,-40.75809097290039,32.70345687866211,1.7522536516189575,-43.369544982910156,-53.628658294677734,-50.24049377441406,-33.923587799072266,136.29563903808594,109.64118194580078,126.4698257446289,115.3294677734375,112.00471496582031,109.04209899902344
26,59,198,132,46,33,20,21,30.0,110.0,199.0,106.0,43.0,21.0,20.0,23.0,-16.083799362182617,38.207489013671875,26.552913665771484,3.6560652256011963,-19.730308532714844,-40.27141571044922,32.4726676940918,1.5579155683517456,-43.542964935302734,-53.77448272705078,-50.40058517456055,-34.099971771240234,136.0491485595703,109.26807403564453,126.06505584716797,114.94754791259766,111.64781188964844,108.72504425048828
22,49,196,131,49,37,22,19,29.0,106.0,186.0,118.0,47.0,22.0,19.0,23.0,-15.482152938842773,38.792964935302734,27.11521339416504,4.239598751068115,-19.16049575805664,-39.718563079833984,32.24674606323242,1.3445957899093628,-43.74766540527344,-53.91218948364258,-50.53712463378906,-34.23042678833008,135.8489532470703,108.94194030761719,125.68059539794922,114.54475402832031,111.29460906982422,108.41424560546875
23,45,170,95,47,37,23,20,28.0,113.0,154.0,116.0,48.0,24.0,19.0,23.0,-14.786283493041992,39.45716094970703,27.791784286499023,4.92373514175415,-18.470121383666992,-39.02058029174805,32.000816345214844,1.1148146390914917,-43.94215774536133,-54.07273483276367,-50.66172409057617,-34.35560607910156,135.66737365722656,108.62635040283203,125.26133728027344,114.14569091796875,110.88597106933594,108.06143188476562
20,46,163,108,42,33,23,18,28.0,108.0,152.0,110.0,44.0,23.0,19.0,22.0,-14.557092666625977,39.66965866088867,28.016218185424805,5.139856338500977,-18.251873016357422,-38.81092071533203,31.94974136352539,1.0659645795822144,-43.97438049316406,-54.10633087158203,-50.68069839477539,-34.386409759521484,135.61331176757812,108.52678680419922,125.12305450439453,114.03884887695312,110.77277374267578,107.98688507080078
23,48,159,103,46,35,23,17,28.0,115.0,180.0,112.0,50.0,23.0,20.0,21.0,-13.856118202209473,40.322593688964844,28.649789810180664,5.767808437347412,-17.62641143798828,-38.1785774230957,31.78631019592285,0.881016731262207,-44.135215759277344,-54.2137565612793,-50.750999450683594,-34.42777633666992,135.52391052246094,108.34471130371094,124.8483657836914,113.7647933959961,110.4880142211914,107.71637725830078
21,48,136,94,44,34,23,17,31.0,127.0,185.0,116.0,50.0,23.0,19.0,23.0,-13.606069564819336,40.55668640136719,28.860822677612305,5.980796813964844,-17.40352439880371,-37.95940017700195,31.73303985595703,0.8212562799453735,-44.201904296875,-54.24945831298828,-50.76023483276367,-34.41909408569336,135.5625457763672,108.35414123535156,124.82976531982422,113.72319793701172,110.42872619628906,107.65016174316406
22,47,136,92,43,29,19,19,30.0,124.0,179.0,137.0,48.0,24.0,19.0,22.0,-13.287487983703613,40.84528350830078,29.09510040283203,6.213270664215088,-17.168094635009766,-37.70083999633789,31.71979522705078,0.7724809646606445,-44.2520637512207,-54.245216369628906,-50.728511810302734,-34.35111618041992,135.64837646484375,108.41621398925781,124.85004425048828,113.70750427246094,110.41911315917969,107.62857055664062
22,49,143,103,45,32,19,19,30.0,118.0,196.0,161.0,51.0,25.0,21.0,20.0,-13.02906608581543,41.09715270996094,29.277118682861328,6.393495082855225,-16.98822021484375,-37.519508361816406,31.738183975219727,0.775551974773407,-44.26458740234375,-54.20353698730469,-50.66263961791992,-34.25965881347656,135.72991943359375,108.47762298583984,124.8573226928711,113.6801528930664,110.4070816040039,107.62049102783203
22,53,116,84,45,35,22,19,31.0,115.0,196.0,157.0,51.0,25.0,21.0,20.0,-12.784643173217773,41.32613754272461,29.454540252685547,6.563013553619385,-16.82316780090332,-37.34885025024414,31.8081111907959,0.8327572345733643,-44.20851516723633,-54.0964469909668,-50.53561019897461,-34.07518768310547,135.81219482421875,108.51138305664062,124.82929229736328,113.62586212158203,110.38330841064453,107.54310607910156
21,47,119,110,50,36,24,22,30.0,115.0,175.0,163.0,51.0,27.0,20.0,21.0,-12.722162246704102,41.38032150268555,29.500308990478516,6.601522445678711,-16.792264938354492,-37.31032943725586,31.84202766418457,0.8631089925765991,-44.17160415649414,-54.05168914794922,-50.48870086669922,-34.01523971557617,135.8304901123047,108.50747680664062,124.80184936523438,113.60923767089844,110.38182067871094,107.53351593017578
21,51,187,119,57,36,24,23,29.0,104.0,180.0,165.0,59.0,29.0,22.0,18.0,-12.704998970031738,41.401084899902344,29.500761032104492,6.5845441818237305,-16.82444190979004,-37.35361862182617,31.963651657104492,1.0195941925048828,-44.03569412231445,-53.90084457397461,-50.331512451171875,-33.8497314453125,135.84375,108.43558502197266,124.69584655761719,113.51554107666016,110.32433319091797,107.4980697631836
22,59,206,125,59,37,28,22,28.0,97.0,174.0,141.0,57.0,28.0,22.0,18.0,-12.810384750366211,41.24187469482422,29.338172912597656,6.390356540679932,-17.052474975585938,-37.584232330322266,32.21377182006836,1.316048264503479,-43.76540756225586,-53.582115173339844,-50.000579833984375,-33.49546813964844,135.904296875,108.28167724609375,124.48988342285156,113.3363037109375,110.21006774902344,107.43856048583984
25,65,225,134,61,39,31,24,34.0,99.0,145.0,130.0,54.0,27.0,22.0,21.0,-12.900773048400879,41.125038146972656,29.219221115112305,6.2478437423706055,-17.210939407348633,-37.73722839355469,32.34193801879883,1.4694018363952637,-43.626590728759766,-53.43362808227539,-49.836971282958984,-33.311859130859375,135.93458557128906,108.20294189453125,124.38323974609375,113.26561737060547,110.16073608398438,107.40532684326172
26,61,228,140,67,41,33,27,35.0,102.0,133.0,136.0,59.0,26.0,20.0,22.0,-13.362403869628906,40.55844497680664,28.683391571044922,5.634255886077881,-17.863147735595703,-38.34260177612305,32.709388732910156,1.9266949892044067,-43.22062301635742,-53.00480270385742,-49.36016845703125,-32.77528381347656,136.11700439453125,108.02143859863281,124.13312530517578,113.1251449584961,110.0846176147461,107.38948059082031
24,60,225,122,63,38,32,24,35.0,93.0,129.0,138.0,57.0,28.0,22.0,23.0,-13.803693771362305,40.05018615722656,28.194299697875977,5.108312606811523,-18.402790069580078,-38.85714340209961,32.916603088378906,2.2045910358428955,-42.99424362182617,-52.749080657958984,-49.08039093017578,-32.45986557006836,136.32835388183594,108.02136993408203,124.0761947631836,113.10181427001953,110.10699462890625,107.4556655883789
26,61,176,113,65,41,33,25,34.0,93.0,107.0,141.0,51.0,25.0,21.0,23.0,-14.323925018310547,39.48383331298828,27.63400650024414,4.527808666229248,-18.988178253173828,-39.43183135986328,33.04807662963867,2.42915940284729,-42.84305953979492,-52.5590705871582,-48.86574935913086,-32.22986602783203,136.60223388671875,108.11143493652344,124.09526824951172,113.12017059326172,110.1520767211914,107.5658187866211
25,51,155,102,61,40,29,26,34.0,100.0,110.0,133.0,50.0,25.0,23.0,23.0,-15.036266326904297,38.73637390136719,26.814613342285156,3.6931216716766357,-19.825347900390625,-40.23130798339844,33.15802001953125,2.5806517601013184,-42.761898040771484,-52.415035247802734,-48.67246627807617,-31.995573043823242,136.97189331054688,108.3763656616211,124.27734375,113.26993560791016,110.29908752441406,107.74510955810547
23,45,134,88,66,41,30,24,29.0,99.0,110.0,109.0,49.0,26.0,22.0,20.0,-15.380647659301758,38.34944534301758,26.36705207824707,3.232457399368286,-20.285654067993164,-40.65663528442383,33.194091796875,2.575298309326172,-42.779048919677734,-52.39094543457031,-48.60722732543945,-31.898496627807617,137.14727783203125,108.53852081298828,124.41990661621094,113.39414978027344,110.41181945800781,107.86066436767578
22,46,131,88,63,38,26,21,27.0,119.0,127.0,102.0,48.0,28.0,24.0,20.0,-15.668439865112305,38.02842712402344,25.99237060546875,2.8408491611480713,-20.67095947265625,-41.01502227783203,33.21342849731445,2.5554795265197754,-42.80924606323242,-52.39133071899414,-48.57079315185547,-31.838058471679688,137.28472900390625,108.67185974121094,124.54634857177734,113.50995635986328,110.51593017578125,107.96837615966797
25,47,128,99,64,38,29,22,31.0,120.0,121.0,97.0,53.0,29.0,24.0,19.0,-15.899296760559082,37.71918487548828,25.61356544494629,2.446146011352539,-21.067672729492188,-41.368568420410156,33.229248046875,2.4735751152038574,-42.89144515991211,-52.42708969116211,-48.55665588378906,-31.782941818237305,137.3875274658203,108.7855453491211,124.71051025390625,113.6603775024414,110.6490478515625,108.08614349365234
22,36,114,97,58,42,33,26,30.0,119.0,128.0,132.0,57.0,33.0,23.0,19.0,-16.019046783447266,37.56802749633789,25.43160057067871,2.25681209564209,-21.26294708251953,-41.547481536865234,33.22880554199219,2.435561418533325,-42.93307876586914,-52.44866943359375,-48.557395935058594,-31.766382217407227,137.44100952148438,108.83416748046875,124.78580474853516,113.73075866699219,110.71253204345703,108.14252471923828
24,44,150,99,59,44,38,26,31.0,113.0,129.0,136.0,61.0,35.0,23.0,20.0,-16.086732864379883,37.475704193115234,25.316190719604492,2.1365554332733154,-21.392215728759766,-41.65996551513672,33.22239685058594,2.403101682662964,-42.96928787231445,-52.469295501708984,-48.56424331665039,-31.755903244018555,137.470947265625,108.85350799560547,124.82887268066406,113.77216339111328,110.75151062011719,108.17044067382812
21,42,150,106,61,41,36,26,30.0,118.0,145.0,159.0,71.0,34.0,22.0,21.0,-16.108951568603516,37.43785095214844,25.246490478515625,2.062371253967285,-21.466062545776367,-41.728580474853516,33.21170425415039,2.3653156757354736,-43.00974655151367,-52.49496841430664,-48.57280731201172,-31.74448585510254,137.4798583984375,108.870361328125,124.85929107666016,113.7978744506836,110.76885986328125,108.16573333740234
24,42,146,105,60,46,40,28,29.0,98.0,140.0,154.0,71.0,37.0,23.0,21.0,-16.087949752807617,37.44739532470703,25.229894638061523,2.0471770763397217,-21.48588752746582,-41.74103927612305,33.209022521972656,2.331601858139038,-43.03858184814453,-52.50728988647461,-48.578853607177734,-31.73450469970703,137.47390747070312,108.88209533691406,124.88639831542969,113.81214141845703,110.78559875488281,108.1607894897461
21,47,177,106,64,47,41,28,26.0,96.0,139.0,153.0,71.0,35.0,21.0,19.0,-15.86314868927002,37.6395149230957,25.290546417236328,2.1030216217041016,-21.428857803344727,-41.651580810546875,33.233795166015625,2.2128067016601562,-43.13090133666992,-52.550296783447266,-48.58521270751953,-31.698776245117188,137.4230499267578,108.91780853271484,125.0076904296875,113.90744018554688,110.88133239746094,108.20801544189453
21,52,182,126,62,43,37,23,26.0,94.0,128.0,157.0,77.0,33.0,23.0,21.0,-15.556540489196777,37.924888610839844,25.479888916015625,2.289599895477295,-21.24250030517578,-41.43025207519531,33.298980712890625,2.152953863143921,-43.15681076049805,-52.5495719909668,-48.55125427246094,-31.63913345336914,137.3697967529297,108.95683288574219,125.12857818603516,114.01464080810547,110.96861267089844,108.25525665283203
22,51,152,124,63,44,39,22,28.0,111.0,157.0,164.0,81.0,35.0,22.0,20.0,-15.170053482055664,38.32478713989258,25.800186157226562,2.615943670272827,-20.92287826538086,-41.083797454833984,33.41180419921875,2.1839799880981445,-43.105194091796875,-52.48036575317383,-48.47428512573242,-31.543909072875977,137.31590270996094,109.00324249267578,125.23971557617188,114.10379028320312,111.05806732177734,108.29554748535156
27,63,142,122,66,48,43,23,29.0,106.0,174.0,166.0,80.0,34.0,23.0,21.0,-14.658473014831543,38.845314025878906,26.22745704650879,3.0424141883850098,-20.496484756469727,-40.634403228759766,33.63722610473633,2.303725481033325,-42.95379638671875,-52.308040618896484,-48.285892486572266,-31.346973419189453,137.2010498046875,108.99126434326172,125.3156967163086,114.16400909423828,111.11601257324219,108.32369995117188
24,76,163,137,76,48,40,21,29.0,107.0,197.0,175.0,81.0,34.0,21.0,21.0,-13.949042320251465,39.539852142333984,26.824697494506836,3.6330034732818604,-19.907901763916016,-40.003665924072266,34.03553771972656,2.5241572856903076,-42.643775939941406,-51.967674255371094,-47.92759323120117,-30.963037490844727,136.9843292236328,108.92259216308594,125.32357025146484,114.15620422363281,111.10943603515625,108.25430297851562
25,74,133,133,72,49,39,20,30.0,123.0,202.0,171.0,77.0,32.0,21.0,22.0,-13.657788276672363,39.858821868896484,27.07670783996582,3.8987231254577637,-19.64618682861328,-39.734127044677734,34.2178840637207,2.6422500610351562,-42.48680877685547,-51.77473068237305,-47.73234939575195,-30.769742965698242,136.87319946289062,108.90354919433594,125.28836822509766,114.0673599243164,111.02436828613281,108.1598892211914
27,73,135,128,75,50,40,24,31.0,152.0,201.0,139.0,65.0,32.0,20.0,22.0,-13.465438842773438,40.07862854003906,27.24825096130371,4.074051380157471,-19.470266342163086,-39.55179977416992,34.35710144042969,2.7558822631835938,-42.35332489013672,-51.61896514892578,-47.56585693359375,-30.605064392089844,136.797607421875,108.87112426757812,125.22596740722656,113.97076416015625,110.92643737792969,108.06520080566406
25,71,137,127,71,48,37,24,29.0,146.0,178.0,153.0,85.0,31.0,19.0,23.0,-13.24421501159668,40.35319519042969,27.387754440307617,4.246313095092773,-19.31026268005371,-39.370948791503906,34.578731536865234,2.918069839477539,-42.183170318603516,-51.36885452270508,-47.3157958984375,-30.33182144165039,136.7027130126953,108.87345123291016,125.21324157714844,113.83203125,110.81465911865234,107.9184799194336
22,60,136,122,59,42,33,22,29.0,145.0,162.0,136.0,85.0,31.0,19.0,22.0,-13.149824142456055,40.492942810058594,27.417461395263672,4.296577453613281,-19.26664924621582,-39.299171447753906,34.72649002075195,3.0212490558624268,-42.07586669921875,-51.214332580566406,-47.144554138183594,-30.132923126220703,136.65452575683594,108.90370178222656,125.22769927978516,113.77114868164062,110.74181365966797,107.80030059814453
24,48,118,103,43,39,34,24,27.0,147.0,126.0,131.0,84.0,32.0,19.0,22.0,-13.104219436645508,40.584327697753906,27.42070770263672,4.329174041748047,-19.259572982788086,-39.26728820800781,34.855712890625,3.121880054473877,-41.96123504638672,-51.037906646728516,-46.9823112487793,-29.94599723815918,136.6269073486328,108.93524932861328,125.20328521728516,113.6543197631836,110.65670013427734,107.67813873291016
25,48,131,100,48,35,32,22,26.0,130.0,133.0,138.0,86.0,33.0,20.0,21.0,-13.08422565460205,40.66038131713867,27.362411499023438,4.2816619873046875,-19.324451446533203,-39.29756546020508,35.126399993896484,3.296889543533325,-41.71391296386719,-50.726104736328125,-46.65476989746094,-29.579204559326172,136.5220184326172,108.96842956542969,125.12175750732422,113.48047637939453,110.46647644042969,107.42861938476562
28,47,119,93,55,43,40,23,32.0,129.0,163.0,161.0,93.0,33.0,19.0,19.0,-13.125994682312012,40.66592025756836,27.256502151489258,4.170797348022461,-19.44920539855957,-39.38568878173828,35.345638275146484,3.4624321460723877,-41.515052795410156,-50.493896484375,-46.40052032470703,-29.284692764282227,136.41134643554688,108.9016342163086,125.01243591308594,113.33782958984375,110.30615997314453,107.21432495117188
30,45,115,96,66,49,44,26,33.0,122.0,165.0,153.0,69.0,30.0,21.0,18.0,-13.21102523803711,40.58707809448242,27.093944549560547,3.9787328243255615,-19.65346336364746,-39.56859588623047,35.59622573852539,3.63185453414917,-41.2751579284668,-50.23101043701172,-46.11280822753906,-28.963109970092773,136.23365783691406,108.72763061523438,124.7702865600586,113.11955261230469,110.08268737792969,106.96835327148438
30,57,157,102,67,50,44,27,33.0,129.0,199.0,145.0,60.0,29.0,22.0,20.0,-13.47719955444336,40.26692581176758,26.634334564208984,3.4555726051330566,-20.194387435913086,-40.046478271484375,35.905662536621094,3.8038532733917236,-41.029422760009766,-49.920982360839844,-45.75175476074219,-28.519611358642578,135.9622802734375,108.34844207763672,124.36067199707031,112.73863220214844,109.74287414550781,106.60576629638672
29,55,163,119,72,50,43,29,34.0,136.0,226.0,140.0,56.0,26.0,22.0,18.0,-13.76514720916748,39.907142639160156,26.173891067504883,2.9463813304901123,-20.69672966003418,-40.503639221191406,36.04737854003906,3.8191165924072266,-40.956077575683594,-49.80512619018555,-45.56773376464844,-28.278522491455078,135.7766876220703,108.09899139404297,124.09527587890625,112.50682830810547,109.4957046508789,106.35566711425781
31,57,158,133,77,54,43,31,32.0,137.0,218.0,128.0,51.0,23.0,21.0,17.0,-14.14081859588623,39.45464324951172,25.59811019897461,2.3359224796295166,-21.30132293701172,-41.0572624206543,36.14476013183594,3.7811954021453857,-40.953487396240234,-49.73273849487305,-45.429931640625,-28.081167221069336,135.59727478027344,107.85734558105469,123.86830139160156,112.27078247070312,109.25993347167969,106.11862182617188
28,55,167,130,71,45,35,30,27.0,103.0,219.0,98.0,47.0,26.0,22.0,18.0,-14.850088119506836,38.64260482788086,24.58856773376465,1.2700862884521484,-22.356861114501953,-42.04423141479492,36.214515686035156,3.692469596862793,-41.01555252075195,-49.689693450927734,-45.291954040527344,-27.852243423461914,135.33653259277344,107.45762634277344,123.4670181274414,111.86986541748047,108.88333892822266,105.75492858886719
27,57,177,140,65,43,33,28,29.0,116.0,225.0,121.0,50.0,27.0,20.0,19.0,-15.324320793151855,38.10421371459961,23.912996292114258,0.559929609298706,-23.0633544921875,-42.71397018432617,36.239715576171875,3.6209185123443604,-41.082855224609375,-49.68891525268555,-45.22991180419922,-27.735504150390625,135.16355895996094,107.17894744873047,123.21580505371094,111.62086486816406,108.64779663085938,105.53575134277344
27,44,149,133,67,47,32,28,29.0,105.0,249.0,134.0,51.0,28.0,18.0,21.0,-15.69981575012207,37.696861267089844,23.395341873168945,-0.00016362263704650104,-23.632694244384766,-43.279930114746094,36.24064254760742,3.573235511779785,-41.15385055541992,-49.70998764038086,-45.21083450317383,-27.6855411529541,135.0166015625,106.86912536621094,122.99832916259766,111.40737915039062,108.4670181274414,105.39134216308594
28,44,160,136,64,45,33,27,28.0,92.0,224.0,140.0,58.0,31.0,18.0,21.0,-16.189802169799805,37.16511154174805,22.79458236694336,-0.7235197424888611,-24.393247604370117,-44.02614974975586,36.18370819091797,3.5112123489379883,-41.35749053955078,-49.8253173828125,-45.29319763183594,-27.716455459594727,134.81834411621094,106.28094482421875,122.8093032836914,111.15554809570312,108.3096923828125,105.27597045898438
25,43,198,183,60,45,35,26,32.0,91.0,267.0,172.0,70.0,35.0,20.0,23.0,-16.474607467651367,36.80365753173828,22.482036590576172,-1.209130883216858,-24.857267379760742,-44.48128128051758,36.14373016357422,3.514432668685913,-41.58314895629883,-50.01435089111328,-45.40476608276367,-27.788663864135742,134.69517517089844,105.77938842773438,122.89561462402344,111.16278839111328,108.32592010498047,105.31372833251953
25,49,233,231,61,46,34,24,29.0,96.0,268.0,175.0,68.0,33.0,24.0,23.0,-16.773426055908203,36.3253059387207,22.179441452026367,-1.7465606927871704,-25.349834442138672,-44.957427978515625,36.08842468261719,3.5773119926452637,-41.96242904663086,-50.319183349609375,-45.57490158081055,-27.91290855407715,134.6052703857422,105.0876235961914,123.28988647460938,111.34614562988281,108.47010803222656,105.5128173828125
24,49,235,233,63,47,33,23,27.0,88.0,266.0,156.0,65.0,34.0,26.0,22.0,-17.24356460571289,35.3459358215332,21.604106903076172,-2.7200818061828613,-26.203514099121094,-45.770320892333984,36.098201751708984,3.764099359512329,-42.730857849121094,-50.931095123291016,-45.91390609741211,-28.125057220458984,134.35772705078125,103.63179779052734,124.53795623779297,112.06623840332031,109.05366516113281,106.06050109863281
25,55,236,253,71,50,39,24,27.0,84.0,232.0,151.0,71.0,34.0,26.0,20.0,-17.389863967895508,34.968780517578125,21.381441116333008,-3.074329137802124,-26.501861572265625,-46.071815490722656,36.126529693603516,3.8385794162750244,-43.03857421875,-51.17890930175781,-46.04793930053711,-28.208873748779297,134.21231079101562,103.01954650878906,125.13981628417969,112.41954040527344,109.34471130371094,106.3078384399414
23,54,226,252,77,53,39,23,32.0,107.0,242.0,157.0,77.0,33.0,26.0,20.0,-17.913663864135742,33.49817657470703,20.633577346801758,-4.243613243103027,-27.59330177307129,-47.15901565551758,36.310176849365234,4.0868401527404785,-43.8469123840332,-51.94469451904297,-46.528324127197266,-28.492734909057617,133.48667907714844,100.65152740478516,126.9696044921875,113.6412353515625,110.4910659790039,107.22538757324219
33,67,246,275,77,52,38,24,48.0,198.0,226.0,150.0,79.0,31.0,25.0,22.0,-18.37354278564453,32.239383697509766,20.08312225341797,-5.3405537605285645,-28.606054306030273,-48.06008529663086,36.52163314819336,4.347357273101807,-44.348876953125,-52.770111083984375,-46.960113525390625,-28.65181541442871,132.94931030273438,98.83473205566406,128.6947479248047,115.41668701171875,111.76808166503906,108.00992584228516
34,68,255,289,82,53,42,25,74.0,314.0,207.0,164.0,87.0,35.0,25.0,25.0,-18.592077255249023,32.23004150390625,19.98853874206543,-5.524169445037842,-28.882957458496094,-47.91804504394531,36.64787673950195,4.642209053039551,-44.34881591796875,-53.0006217956543,-47.238365173339844,-28.52967071533203,132.63330078125,98.67282104492188,129.25848388671875,116.00057983398438,112.31024169921875,107.42205810546875
38,69,262,293,89,54,45,26,109.0,400.0,217.0,162.0,91.0,37.0,28.0,30.0,-18.921249389648438,32.04833221435547,19.698400497436523,-6.24591064453125,-29.82801628112793,-48.59669494628906,37.005245208740234,5.565994739532471,-44.41688537597656,-53.38283157348633,-47.6004524230957,-28.571382522583008,132.3956298828125,97.69164276123047,130.71731567382812,117.33882141113281,113.7103042602539,108.03721618652344
64,92,365,280,88,59,46,38,121.0,426.0,229.0,169.0,94.0,40.0,32.0,32.0,-19.30986213684082,32.90734100341797,19.495834350585938,-6.89798641204834,-30.455289840698242,-48.552127838134766,37.739261627197266,7.531343936920166,-43.82611083984375,-53.32112503051758,-47.374271392822266,-27.765031814575195,132.3051300048828,97.59195709228516,131.18817138671875,118.39405059814453,114.12513732910156,107.02951049804688
69,120,416,270,83,64,52,45,127.0,439.0,234.0,155.0,85.0,40.0,32.0,33.0,-19.812179565429688,34.01588439941406,18.98472023010254,-7.621821403503418,-31.202835083007812,-49.03310775756836,38.0404052734375,9.397614479064941,-43.63461685180664,-53.33149337768555,-47.357723236083984,-27.35672378540039,132.80931091308594,97.97730255126953,131.1488037109375,118.66105651855469,114.43112182617188,106.74105072021484
65,129,408,206,79,63,52,46,124.0,410.0,204.0,128.0,75.0,38.0,33.0,31.0,-21.028409957885742,35.65447998046875,17.794981002807617,-8.804502487182617,-32.274322509765625,-50.828189849853516,38.04167556762695,12.331725120544434,-43.452110290527344,-52.98964309692383,-46.769065856933594,-27.142776489257812,134.94984436035156,99.95036315917969,129.9154510498047,117.67306518554688,113.2547836303711,107.62667846679688
68,141,398,121,75,65,51,48,112.0,335.0,206.0,101.0,61.0,33.0,31.0,28.0,-21.873411178588867,36.60890579223633,16.527421951293945,-9.511432647705078,-32.82316207885742,-51.547813415527344,37.64698791503906,13.14040756225586,-43.628143310546875,-53.02476501464844,-46.57948684692383,-27.172365188598633,136.5966796875,102.63805389404297,129.6092529296875,117.41060638427734,112.5329818725586,107.81399536132812
68,144,393,91,62,66,53,48,81.0,233.0,186.0,83.0,53.0,31.0,28.0,24.0,-22.940401077270508,38.28004455566406,14.525575637817383,-10.572314262390137,-33.401573181152344,-52.09078598022461,37.07881546020508,12.503718376159668,-42.84709930419922,-53.26255798339844,-46.499732971191406,-27.408519744873047,138.64874267578125,109.15110778808594,128.2385711669922,118.31965637207031,112.390380859375,108.15064239501953
46,131,295,74,51,58,47,39,62.0,189.0,141.0,58.0,35.0,27.0,25.0,22.0,-23.43277359008789,39.360599517822266,13.745701789855957,-10.980728149414062,-33.62483215332031,-52.27352523803711,36.95222473144531,11.579809188842773,-41.76191711425781,-52.8709831237793,-46.24293518066406,-27.395822525024414,139.48284912109375,114.64714813232422,127.07715606689453,118.29315948486328,112.35301971435547,108.31768035888672
39,105,219,72,50,54,47,32,46.0,157.0,161.0,100.0,42.0,28.0,25.0,19.0,-23.745859146118164,39.637107849121094,13.318022727966309,-10.949854850769043,-33.73942184448242,-52.46198654174805,37.03836441040039,10.513080596923828,-40.637351989746094,-52.079219818115234,-45.8106575012207,-27.262176513671875,139.84381103515625,120.51332092285156,125.90589904785156,117.67788696289062,112.16858673095703,108.49364471435547
40,96,193,93,59,62,56,33,43.0,155.0,202.0,136.0,50.0,30.0,24.0,21.0,-23.959386825561523,37.88617706298828,13.077969551086426,-10.490860939025879,-33.3581428527832,-52.638423919677734,37.28677749633789,8.641364097595215,-39.189388275146484,-50.67403793334961,-44.78515625,-26.9093017578125,139.93084716796875,130.18167114257812,124.24597930908203,116.1819839477539,111.14694213867188,108.53851318359375
35,79,175,118,66,68,65,31,41.0,140.0,202.0,143.0,55.0,30.0,23.0,20.0,-23.953977584838867,36.956905364990234,12.976078987121582,-10.420209884643555,-33.26536178588867,-52.64213562011719,37.383460998535156,8.057750701904297,-39.07177734375,-50.403072357177734,-44.54399871826172,-26.812236785888672,139.85479736328125,131.7090301513672,124.2023696899414,115.96215057373047,110.9642562866211,108.57484436035156
35,76,193,154,70,65,63,30,37.0,131.0,210.0,172.0,72.0,31.0,25.0,21.0,-23.81224822998047,34.81882095336914,12.639477729797363,-10.489943504333496,-33.28668975830078,-52.68909454345703,37.638572692871094,6.797707557678223,-39.109092712402344,-50.11610794067383,-44.24554443359375,-26.618789672851562,139.5269317626953,133.59060668945312,124.50489044189453,115.98289489746094,111.0174331665039,108.7843246459961
33,77,229,202,76,66,65,31,43.0,134.0,208.0,212.0,95.0,34.0,26.0,26.0,-23.275251388549805,31.059524536132812,12.209174156188965,-10.769577026367188,-33.285030364990234,-52.220001220703125,37.983951568603516,4.491761684417725,-39.63835906982422,-50.2308349609375,-44.13180923461914,-26.33287239074707,138.2784881591797,133.50006103515625,125.21521759033203,116.3658676147461,111.07075500488281,108.39179992675781
33,78,229,211,73,63,62,29,41.0,127.0,203.0,261.0,104.0,35.0,25.0,27.0,-23.16391944885254,27.298751831054688,12.214739799499512,-10.75031566619873,-33.16184616088867,-52.39234161376953,38.02782440185547,2.9778356552124023,-39.94122314453125,-50.21314239501953,-44.06089401245117,-26.455453872680664,137.89222717285156,130.64109802246094,125.30828094482422,116.31526184082031,111.1423110961914,108.86815643310547
33,64,221,215,94,59,56,28,39.0,117.0,248.0,262.0,104.0,34.0,25.0,27.0,-23.112638473510742,24.6453857421875,12.279182434082031,-10.717948913574219,-33.12616729736328,-52.48401641845703,38.06922912597656,2.2147505283355713,-40.087703704833984,-50.19610595703125,-44.049774169921875,-26.52247428894043,137.6378631591797,128.1494140625,125.34253692626953,116.26973724365234,111.1989517211914,109.1087646484375
32,57,208,206,94,57,45,26,37.0,125.0,259.0,277.0,104.0,36.0,24.0,27.0,-22.81427574157715,16.69829750061035,12.509153366088867,-10.964128494262695,-33.25108337402344,-52.94539260864258,38.326297760009766,0.880225658416748,-40.59455108642578,-50.28768539428711,-44.07785415649414,-26.767087936401367,135.88739013671875,118.47083282470703,124.59024047851562,115.7922592163086,111.3753890991211,110.04442596435547
31,54,202,226,98,58,45,27,42.0,135.0,258.0,278.0,97.0,34.0,23.0,27.0,-22.572574615478516,15.172971725463867,12.7896089553833,-10.749459266662598,-33.02545166015625,-52.79720687866211,38.34056091308594,0.7396970987319946,-40.784156799316406,-50.31747055053711,-44.08012008666992,-26.789064407348633,135.4677276611328,116.57560729980469,124.53997039794922,115.58545684814453,111.23546600341797,109.97118377685547
29,50,173,202,97,54,42,25,37.0,158.0,279.0,261.0,78.0,30.0,22.0,22.0,-21.8378849029541,11.659418106079102,13.879342079162598,-9.893994331359863,-32.35580062866211,-52.23326873779297,38.328277587890625,0.7544147372245789,-41.14028549194336,-50.4362907409668,-44.25770568847656,-26.985919952392578,133.96905517578125,110.57474517822266,123.75572204589844,114.67424774169922,110.7220230102539,109.54732513427734
33,59,230,217,106,57,41,25,37.0,187.0,268.0,203.0,61.0,30.0,23.0,21.0,-19.793426513671875,8.059450149536133,15.991209983825684,-8.405982971191406,-31.581937789916992,-51.474884033203125,38.394466400146484,0.8387267589569092,-42.29950714111328,-51.141014099121094,-44.580718994140625,-27.22300910949707,129.0880584716797,100.2364501953125,120.63085174560547,111.63033294677734,108.06376647949219,107.7752685546875
37,73,265,230,94,60,43,28,38.0,216.0,217.0,183.0,55.0,30.0,22.0,21.0,-19.229658126831055,7.26909875869751,16.48599624633789,-7.967235088348389,-31.265953063964844,-51.22380828857422,38.462440490722656,0.9628793597221375,-42.7398796081543,-51.338050842285156,-44.54938507080078,-27.09389877319336,128.07620239257812,98.10274505615234,120.68991088867188,111.1739730834961,107.31416320800781,107.06086730957031
42,89,270,223,88,53,44,30,42.0,231.0,200.0,155.0,55.0,30.0,22.0,22.0,-20.728487014770508,12.08176040649414,19.251340866088867,-7.072146892547607,-29.883811950683594,-50.35818862915039,37.504432678222656,4.839041709899902,-42.61531448364258,-51.93442916870117,-44.51673889160156,-25.142696380615234,125.33378601074219,90.63998413085938,126.55502319335938,115.45565032958984,112.8017349243164,111.34984588623047
41,96,320,192,84,51,45,30,43.0,244.0,198.0,143.0,71.0,31.0,23.0,21.0,-18.872798919677734,15.528884887695312,19.950637817382812,-5.741372108459473,-28.73322868347168,-49.04472351074219,38.07050323486328,6.999077320098877,-43.097496032714844,-51.63007736206055,-43.95816421508789,-24.400362014770508,123.14774322509766,87.0172348022461,124.3802490234375,111.86017608642578,108.22380065917969,107.27201080322266
45,114,342,179,82,57,51,35,45.0,263.0,193.0,120.0,69.0,29.0,22.0,22.0,-17.964927673339844,20.853004455566406,20.405044555664062,-4.435512542724609,-27.487178802490234,-47.760860443115234,38.956668853759766,9.739566802978516,-42.397911071777344,-50.06307601928711,-42.65340042114258,-23.19977378845215,125.93571472167969,90.92582702636719,124.76200866699219,110.36463165283203,106.44526672363281,105.75154113769531
44,117,341,152,78,57,53,35,51.0,244.0,196.0,110.0,71.0,31.0,22.0,23.0,-17.390295028686523,26.963613510131836,20.6904296875,-3.6592652797698975,-26.776140213012695,-47.173179626464844,39.40127182006836,11.237792015075684,-41.898216247558594,-49.37384033203125,-42.195831298828125,-23.060317993164062,127.51641082763672,94.82422637939453,125.35596466064453,110.32772064208984,106.17050170898438,105.76974487304688
41,112,314,112,67,54,54,31,50.0,218.0,170.0,104.0,73.0,30.0,24.0,22.0,-17.241254806518555,30.818803787231445,20.6644344329834,-3.4458982944488525,-26.583091735839844,-47.02216720581055,39.565162658691406,12.069260597229004,-41.66480255126953,-49.20163345336914,-42.13959884643555,-23.101015090942383,128.3314666748047,97.55506134033203,125.85523986816406,110.84223937988281,106.53710174560547,106.13511657714844
37,102,316,116,66,52,49,29,55.0,226.0,174.0,99.0,71.0,29.0,25.0,24.0,-17.136098861694336,34.227516174316406,20.542701721191406,-3.432962656021118,-26.52010154724121,-46.95154571533203,39.66360855102539,12.741602897644043,-41.541255950927734,-49.241065979003906,-42.16312789916992,-23.179861068725586,129.05494689941406,100.34613800048828,126.34190368652344,111.52816009521484,107.15755462646484,106.68717956542969
36,96,260,149,66,54,50,30,50.0,211.0,188.0,71.0,57.0,31.0,25.0,22.0,-17.126222610473633,38.04758834838867,20.243478775024414,-3.5647459030151367,-26.585195541381836,-46.91789245605469,39.53757858276367,13.033807754516602,-41.540889739990234,-49.663055419921875,-42.60033416748047,-23.499845504760742,130.4713592529297,105.27739715576172,127.03157806396484,112.91329193115234,108.58432006835938,107.8900146484375
30,79,240,148,67,49,45,26,48.0,167.0,212.0,80.0,64.0,36.0,26.0,23.0,-17.15699005126953,40.28201675415039,20.057254791259766,-3.6633689403533936,-26.699750900268555,-46.997161865234375,39.38023376464844,12.889772415161133,-41.51143264770508,-49.92353057861328,-43.00374221801758,-23.820913314819336,131.3805694580078,109.33735656738281,127.1717758178711,113.54660034179688,109.46625518798828,108.78817749023438
31,79,212,161,61,43,42,26,43.0,170.0,219.0,115.0,65.0,34.0,24.0,22.0,-17.220291137695312,41.85829162597656,19.92398452758789,-3.7190115451812744,-26.826723098754883,-47.164573669433594,39.19507598876953,12.450507164001465,-41.46368408203125,-50.03926086425781,-43.39544677734375,-24.229148864746094,132.1945343017578,113.42279815673828,127.17082977294922,113.91334533691406,110.18790435791016,109.65415954589844
31,79,212,174,60,38,40,27,47.0,178.0,221.0,154.0,70.0,34.0,22.0,23.0,-17.309036254882812,43.16041564941406,19.735034942626953,-3.783046245574951,-26.974088668823242,-47.40032958984375,39.01054000854492,11.514375686645508,-41.354156494140625,-50.02680969238281,-43.74888610839844,-24.762535095214844,133.09910583496094,119.3108139038086,127.09439849853516,114.14527130126953,110.80136108398438,110.63715362548828
33,82,232,189,62,41,45,29,39.0,147.0,224.0,176.0,89.0,37.0,25.0,24.0,-17.342424392700195,43.35702133178711,19.53557777404785,-3.9265646934509277,-27.01394271850586,-47.604576110839844,38.86940383911133,10.671634674072266,-41.382999420166016,-50.12931823730469,-43.944618225097656,-25.092979431152344,133.6710205078125,122.65861511230469,127.19943237304688,114.54788208007812,111.12200927734375,111.28101348876953
33,84,245,184,62,43,45,29,38.0,145.0,216.0,190.0,95.0,37.0,24.0,25.0,-17.42238998413086,42.928077697753906,19.369892120361328,-4.0228271484375,-27.127483367919922,-47.7342643737793,38.732364654541016,9.716970443725586,-41.43627166748047,-50.20259475708008,-44.152225494384766,-25.434118270874023,134.20452880859375,125.49942016601562,127.45186614990234,114.96755981445312,111.6083984375,111.83039093017578
34,80,233,194,59,41,43,31,37.0,138.0,201.0,214.0,100.0,34.0,22.0,24.0,-16.883670806884766,41.79315948486328,19.233802795410156,-4.12164831161499,-27.162437438964844,-46.62708282470703,38.8172607421875,7.87271785736084,-41.637733459472656,-50.34039306640625,-44.21288299560547,-25.040058135986328,134.4351348876953,129.20729064941406,128.09933471679688,115.76284790039062,112.20967864990234,110.73372650146484
31,65,216,217,78,47,44,30,35.0,126.0,192.0,205.0,105.0,35.0,24.0,23.0,-16.835800170898438,40.55577087402344,19.141815185546875,-4.171082496643066,-27.080392837524414,-46.85417556762695,38.69136428833008,6.873417854309082,-41.86917495727539,-50.53529739379883,-44.405460357666016,-25.317747116088867,134.77093505859375,130.17678833007812,128.39675903320312,116.1559829711914,112.67572021484375,111.48309326171875
31,62,216,225,88,52,45,29,33.0,127.0,187.0,195.0,106.0,37.0,25.0,22.0,-16.817537307739258,39.4091796875,19.10490608215332,-4.048055648803711,-26.796859741210938,-46.90610885620117,38.633750915527344,6.149177074432373,-42.03099822998047,-50.59699249267578,-44.41441345214844,-25.51795196533203,134.91880798339844,130.6079559326172,128.63174438476562,116.18775939941406,112.54679870605469,111.84957122802734
29,58,188,218,93,56,51,30,32.0,128.0,183.0,189.0,96.0,38.0,25.0,20.0,-16.802480697631836,37.59839630126953,19.134056091308594,-3.769421339035034,-26.410842895507812,-46.63451385498047,38.60939407348633,5.282956600189209,-42.17088317871094,-50.59354782104492,-44.33497619628906,-25.627399444580078,134.98712158203125,130.36865234375,128.7755584716797,115.92493438720703,112.0022964477539,111.45201873779297
29,63,193,211,96,57,54,28,33.0,117.0,184.0,180.0,89.0,36.0,24.0,20.0,-16.794721603393555,36.25802993774414,19.151826858520508,-3.5834200382232666,-26.198583602905273,-46.43232345581055,38.60306167602539,4.7363409996032715,-42.24861145019531,-50.589378356933594,-44.30073928833008,-25.652551651000977,134.99668884277344,129.569091796875,128.8265838623047,115.69770812988281,111.65139770507812,111.05838775634766
26,58,182,201,99,70,67,27,33.0,130.0,174.0,179.0,80.0,35.0,24.0,20.0,-16.784332275390625,35.19683837890625,19.17768096923828,-3.4445924758911133,-26.028928756713867,-46.25592803955078,38.598758697509766,4.303157329559326,-42.32941818237305,-50.60347366333008,-44.277099609375,-25.667997360229492,134.9982452392578,128.5377960205078,128.85987854003906,115.53092956542969,111.38179016113281,110.68212890625
28,59,185,183,84,67,67,27,34.0,145.0,156.0,182.0,72.0,34.0,23.0,22.0,-16.741268157958984,34.301021575927734,19.159095764160156,-3.4823849201202393,-26.00774383544922,-46.1998176574707,38.59061813354492,3.855982780456543,-42.5048828125,-50.748268127441406,-44.350765228271484,-25.736236572265625,134.9952392578125,126.88722229003906,129.01907348632812,115.65971374511719,111.44886016845703,110.52694702148438
25,59,171,173,71,67,65,30,31.0,136.0,151.0,168.0,70.0,33.0,23.0,23.0,-16.72739028930664,33.98398971557617,19.170766830444336,-3.478555679321289,-25.963714599609375,-46.2000617980957,38.58656311035156,3.69161057472229,-42.598812103271484,-50.816280364990234,-44.372310638427734,-25.783756256103516,135.00384521484375,125.90460968017578,129.07948303222656,115.66597747802734,111.37458038330078,110.44512176513672
26,61,178,169,63,62,57,28,30.0,133.0,158.0,161.0,67.0,31.0,20.0,22.0,-16.713117599487305,33.860023498535156,19.169818878173828,-3.489488124847412,-25.943906784057617,-46.224327087402344,38.58222198486328,3.5900275707244873,-42.694236755371094,-50.8870964050293,-44.411590576171875,-25.83245086669922,135.0179901123047,125.03608703613281,129.15374755859375,115.66425323486328,111.35872650146484,110.41844177246094
25,59,145,140,51,56,52,27,30.0,129.0,221.0,176.0,78.0,35.0,23.0,21.0,-16.706167221069336,33.799949645996094,19.175100326538086,-3.470592498779297,-25.917404174804688,-46.23439407348633,38.57630920410156,3.5223333835601807,-42.78607177734375,-50.929649353027344,-44.422706604003906,-25.8690128326416,135.0323028564453,124.1795425415039,129.18896484375,115.55973815917969,111.24922180175781,110.33573913574219
26,65,160,143,44,38,38,27,31.0,118.0,209.0,161.0,85.0,34.0,22.0,20.0,-16.70094871520996,33.7904052734375,19.20551300048828,-3.414971351623535,-25.87953758239746,-46.26009750366211,38.56556701660156,3.468576669692993,-42.91340637207031,-50.95435333251953,-44.419734954833984,-25.90984344482422,135.04574584960938,122.9808120727539,129.12924194335938,115.2975845336914,110.9985580444336,110.13729858398438
22,67,148,135,48,42,42,25,30.0,114.0,209.0,173.0,93.0,36.0,21.0,19.0,-16.699602127075195,33.807769775390625,19.23326301574707,-3.4046497344970703,-25.888099670410156,-46.268287658691406,38.5561637878418,3.4553678035736084,-42.990142822265625,-50.97639465332031,-44.44377136230469,-25.930490493774414,135.04847717285156,122.09881591796875,129.0199737548828,115.14977264404297,110.90435791015625,109.98339080810547
23,62,159,117,54,50,53,23,32.0,115.0,213.0,177.0,97.0,36.0,23.0,18.0,-16.69728660583496,33.74086380004883,19.249061584472656,-3.3750061988830566,-25.892353057861328,-46.30526351928711,38.543636322021484,3.417853355407715,-43.069454193115234,-50.9790153503418,-44.45181655883789,-25.975072860717773,135.04457092285156,121.11180114746094,128.92117309570312,114.93917083740234,110.77220153808594,109.92405700683594
20,56,137,105,54,53,54,23,31.0,108.0,212.0,171.0,93.0,34.0,23.0,19.0,-16.692346572875977,33.388092041015625,19.286283493041992,-3.3559281826019287,-25.896533966064453,-46.313209533691406,38.5207405090332,3.3261752128601074,-43.176536560058594,-50.99610137939453,-44.470008850097656,-26.02968978881836,135.02493286132812,119.348388671875,128.69549560546875,114.73828887939453,110.60218811035156,109.79051971435547
20,52,165,118,67,55,52,24,32.0,102.0,175.0,151.0,80.0,30.0,21.0,18.0,-16.687969207763672,32.972408294677734,19.296947479248047,-3.3560903072357178,-25.899185180664062,-46.29094696044922,38.50407409667969,3.2518765926361084,-43.24348449707031,-51.023223876953125,-44.494544982910156,-26.073984146118164,134.99826049804688,118.09300994873047,128.57034301757812,114.66370391845703,110.57151794433594,109.73772430419922
22,47,165,147,68,59,56,24,29.0,93.0,178.0,130.0,73.0,30.0,22.0,19.0,-16.679346084594727,32.525062561035156,19.301559448242188,-3.361377477645874,-25.899600982666016,-46.29238510131836,38.485565185546875,3.1655635833740234,-43.31106185913086,-51.064456939697266,-44.53398895263672,-26.142805099487305,134.9521942138672,116.82516479492188,128.49127197265625,114.66983032226562,110.5863265991211,109.7679443359375
23,41,159,138,65,53,53,25,30.0,74.0,197.0,120.0,77.0,31.0,23.0,20.0,-16.65874671936035,31.44428253173828,19.347837448120117,-3.358628273010254,-25.927881240844727,-46.31120300292969,38.4538688659668,3.0915443897247314,-43.39204788208008,-51.154232025146484,-44.661956787109375,-26.309785842895508,134.84222412109375,113.97023010253906,128.44110107421875,114.7859115600586,110.81674194335938,109.94827270507812
23,40,151,136,58,42,43,24,29.0,115.0,199.0,122.0,74.0,33.0,23.0,21.0,-16.617130279541016,30.84249496459961,19.449485778808594,-3.3264877796173096,-25.947298049926758,-46.34375762939453,38.42966079711914,3.080501079559326,-43.44015884399414,-51.25761032104492,-44.83659744262695,-26.504919052124023,134.69854736328125,111.75545501708984,128.5128631591797,115.01078796386719,111.18840789794922,110.24169158935547
26,43,162,137,55,40,45,27,33.0,122.0,198.0,127.0,73.0,32.0,21.0,20.0,-16.58639907836914,30.056610107421875,19.61048126220703,-3.2679100036621094,-25.91714859008789,-46.319374084472656,38.41221618652344,3.3834800720214844,-43.44222640991211,-51.36106872558594,-44.996116638183594,-26.689090728759766,134.55654907226562,108.63111114501953,128.55357360839844,115.27403259277344,111.49819946289062,110.45895385742188
25,44,137,146,54,37,44,27,32.0,129.0,237.0,154.0,75.0,31.0,20.0,20.0,-16.593782424926758,29.886348724365234,19.876710891723633,-3.0991244316101074,-25.797359466552734,-46.19697570800781,38.35934066772461,3.799379587173462,-43.413326263427734,-51.43954849243164,-45.14744186401367,-26.905590057373047,134.4482879638672,105.8201904296875,128.48358154296875,115.38236999511719,111.64324188232422,110.50177764892578
24,53,137,133,59,35,41,25,33.0,182.0,236.0,160.0,80.0,32.0,22.0,20.0,-16.603572845458984,30.24624252319336,20.027881622314453,-2.9734280109405518,-25.714935302734375,-46.11860656738281,38.323204040527344,4.04267692565918,-43.40199661254883,-51.46858596801758,-45.20911407470703,-27.023042678833008,134.4037322998047,104.59147644042969,128.4734649658203,115.39314270019531,111.61930847167969,110.4885025024414
22,62,182,132,59,39,42,25,31.0,193.0,224.0,158.0,68.0,30.0,21.0,19.0,-16.617328643798828,30.794116973876953,20.16385269165039,-2.8669581413269043,-25.634639739990234,-46.0419807434082,38.28852844238281,4.266038417816162,-43.3909912109375,-51.49819564819336,-45.26387023925781,-27.122365951538086,134.37527465820312,103.58985137939453,128.48187255859375,115.40377044677734,111.5890884399414,110.44318389892578
24,69,197,149,69,40,43,25,31.0,194.0,230.0,156.0,62.0,25.0,22.0,19.0,-16.622411727905273,32.60376739501953,20.36248207092285,-2.705874443054199,-25.5266056060791,-45.929203033447266,38.244293212890625,4.701538562774658,-43.376243591308594,-51.540077209472656,-45.36577224731445,-27.286705017089844,134.31143188476562,102.61305236816406,128.6056365966797,115.41873168945312,111.6002197265625,110.43592071533203
22,73,201,157,77,42,42,24,43.0,227.0,231.0,162.0,65.0,26.0,22.0,19.0,-16.6258544921875,34.00490188598633,20.489225387573242,-2.605478048324585,-25.45865821838379,-45.85612487792969,38.21705627441406,5.004619121551514,-43.36363983154297,-51.56825637817383,-45.4315071105957,-27.396526336669922,134.26101684570312,102.38214874267578,128.70986938476562,115.43363189697266,111.6036148071289,110.4310073852539
23,70,196,140,67,43,48,24,48.0,245.0,157.0,134.0,70.0,28.0,24.0,20.0,-16.628202438354492,35.51982498168945,20.61650848388672,-2.5080692768096924,-25.388416290283203,-45.785057067871094,38.196250915527344,5.371212005615234,-43.34356689453125,-51.59075927734375,-45.479610443115234,-27.484569549560547,134.2125244140625,102.42201232910156,128.79669189453125,115.4521255493164,111.57513427734375,110.37628936767578
24,78,194,120,67,40,44,25,54.0,220.0,171.0,129.0,60.0,28.0,22.0,21.0,-16.639657974243164,37.72902297973633,20.806194305419922,-2.379713296890259,-25.29424285888672,-45.689720153808594,38.161109924316406,6.018548011779785,-43.317970275878906,-51.626346588134766,-45.562171936035156,-27.61933708190918,134.14154052734375,102.80738830566406,128.83648681640625,115.45133972167969,111.53759002685547,110.29209899902344
25,101,184,121,64,37,41,25,54.0,217.0,172.0,106.0,56.0,29.0,22.0,25.0,-16.65746307373047,39.4720344543457,20.900339126586914,-2.3371989727020264,-25.242279052734375,-45.6374397277832,38.12808609008789,6.635081768035889,-43.32834243774414,-51.66124725341797,-45.619606018066406,-27.693222045898438,134.1118621826172,103.34580993652344,128.83840942382812,115.42398834228516,111.50790405273438,110.17897033691406
25,101,178,100,55,38,42,25,53.0,203.0,171.0,90.0,52.0,30.0,21.0,23.0,-16.722824096679688,41.262699127197266,20.989410400390625,-2.2886106967926025,-25.187583923339844,-45.59096145629883,38.05974578857422,7.3860297203063965,-43.35272216796875,-51.71332931518555,-45.71098709106445,-27.827560424804688,134.11204528808594,104.05501556396484,128.86007690429688,115.41681671142578,111.4903564453125,110.11573028564453
25,100,186,91,46,40,45,26,44.0,173.0,168.0,81.0,49.0,31.0,22.0,23.0,-17.13630485534668,43.136722564697266,21.10256004333496,-2.1693458557128906,-25.075170516967773,-45.53354263305664,37.64076614379883,8.221513748168945,-43.524620056152344,-52.018394470214844,-46.11503601074219,-28.379911422729492,134.5256805419922,105.65066528320312,129.2357635498047,115.71884155273438,111.63617706298828,110.20182800292969
26,100,189,91,51,54,68,28,37.0,141.0,164.0,96.0,42.0,28.0,21.0,24.0,-17.33060073852539,44.19309616088867,20.888275146484375,-2.315157175064087,-25.15102195739746,-45.56028366088867,37.32451248168945,8.313948631286621,-43.78443145751953,-52.249603271484375,-46.36288070678711,-28.64666748046875,134.89337158203125,107.38041687011719,129.57606506347656,115.94076538085938,111.74711608886719,110.17017364501953
26,98,193,95,46,57,72,27,30.0,124.0,131.0,97.0,46.0,28.0,24.0,22.0,-17.511127471923828,44.910945892333984,20.55900764465332,-2.5547893047332764,-25.322437286376953,-45.6302604675293,37.05242919921875,8.047480583190918,-43.856597900390625,-52.355831146240234,-46.506595611572266,-28.804264068603516,135.2759552001953,109.5279541015625,129.43093872070312,116.02556610107422,111.75897216796875,110.08892822265625
27,72,174,93,47,60,72,27,31.0,158.0,120.0,119.0,44.0,26.0,24.0,20.0,-17.62828826904297,45.438785552978516,20.307884216308594,-2.7610795497894287,-25.479585647583008,-45.736351013183594,36.87331008911133,7.69220495223999,-43.748409271240234,-52.31682586669922,-46.480594635009766,-28.86248207092285,135.56231689453125,111.90960693359375,128.9785614013672,115.91677856445312,111.56391143798828,109.98159790039062
27,67,177,99,50,61,73,26,39.0,195.0,108.0,136.0,56.0,28.0,24.0,21.0,-17.755443572998047,45.753143310546875,20.077613830566406,-2.96673583984375,-25.672462463378906,-45.87464141845703,36.73613357543945,7.138099670410156,-43.4627685546875,-52.01473617553711,-46.322322845458984,-28.82212257385254,135.84307861328125,115.47882843017578,128.33172607421875,115.46075439453125,111.25537872314453,109.76607513427734
26,66,159,98,50,61,74,23,38.0,187.0,85.0,137.0,57.0,28.0,23.0,23.0,-17.84147071838379,45.54338836669922,19.982994079589844,-3.05523419380188,-25.744285583496094,-45.952579498291016,36.67460632324219,6.653846740722656,-43.21578598022461,-51.80365753173828,-46.15047836303711,-28.77091407775879,135.99417114257812,117.79931640625,127.9172134399414,115.20748138427734,110.98609924316406,109.6329345703125
25,74,171,108,47,48,54,21,37.0,186.0,83.0,157.0,63.0,30.0,23.0,21.0,-17.896587371826172,44.81451416015625,19.924488067626953,-3.0555317401885986,-25.715106964111328,-45.99650573730469,36.6273078918457,5.9668755531311035,-43.0086669921875,-51.58451461791992,-45.90835952758789,-28.705230712890625,136.0852508544922,119.46259307861328,127.55033874511719,114.92218017578125,110.57173919677734,109.45628356933594
26,75,164,98,60,48,50,25,36.0,183.0,94.0,161.0,67.0,29.0,23.0,22.0,-17.958847045898438,42.5099983215332,19.81123161315918,-3.049086570739746,-25.650121688842773,-46.000850677490234,36.55657196044922,4.420429706573486,-42.908660888671875,-51.31886672973633,-45.59626770019531,-28.56821060180664,136.18585205078125,121.12178039550781,127.41224670410156,114.58655548095703,110.0225830078125,109.09871673583984
26,74,178,90,64,51,53,27,37.0,147.0,117.0,149.0,70.0,31.0,23.0,22.0,-17.984161376953125,40.46902084350586,19.771509170532227,-2.9944376945495605,-25.47968864440918,-45.90813064575195,36.52174377441406,3.352625608444214,-42.89176940917969,-51.13241958618164,-45.32322692871094,-28.425451278686523,136.1896514892578,121.25361633300781,127.37387084960938,114.29718780517578,109.51607513427734,108.70895385742188
25,73,167,97,68,54,60,27,29.0,91.0,113.0,133.0,61.0,30.0,24.0,21.0,-17.999691009521484,39.31216812133789,19.730445861816406,-2.9958088397979736,-25.4202823638916,-45.84506607055664,36.502784729003906,2.798168659210205,-42.91158676147461,-51.07748031616211,-45.228145599365234,-28.331947326660156,136.17539978027344,121.08740234375,127.40349578857422,114.2168960571289,109.34455108642578,108.47017669677734
26,75,199,110,64,53,64,28,31.0,96.0,129.0,140.0,62.0,28.0,23.0,21.0,-18.104915618896484,35.397804260253906,19.39939308166504,-3.2864630222320557,-25.536725997924805,-45.879791259765625,36.36638259887695,1.1927270889282227,-43.216957092285156,-51.28166198730469,-45.28337097167969,-28.33812141418457,135.8975067138672,119.10302734375,127.7083740234375,114.49169921875,109.44708251953125,108.31470489501953
26,69,184,96,65,53,62,28,33.0,112.0,159.0,114.0,59.0,31.0,25.0,22.0,-18.165407180786133,33.12587356567383,19.20163345336914,-3.451688289642334,-25.634090423583984,-45.924949645996094,36.27909851074219,0.4157297611236572,-43.40654754638672,-51.421142578125,-45.332847595214844,-28.38620948791504,135.6882781982422,117.04733276367188,127.87041473388672,114.67106628417969,109.54020690917969,108.31317901611328
23,58,174,99,52,50,62,25,33.0,148.0,175.0,102.0,53.0,31.0,22.0,21.0,-18.228546142578125,31.141210556030273,19.067068099975586,-3.559574842453003,-25.73321533203125,-45.940128326416016,36.20857238769531,-0.014284376055002213,-43.53584671020508,-51.53232955932617,-45.39979934692383,-28.417964935302734,135.51942443847656,114.72047424316406,127.9561767578125,114.80148315429688,109.63701629638672,108.28279876708984
28,61,154,135,49,49,61,23,41.0,148.0,169.0,119.0,52.0,33.0,22.0,21.0,-18.276792526245117,29.483692169189453,18.982088088989258,-3.6148040294647217,-25.761728286743164,-45.88549041748047,36.13581848144531,-0.061419662088155746,-43.6476936340332,-51.62300109863281,-45.44342041015625,-28.438779830932617,135.3489532470703,111.60343933105469,128.00387573242188,114.88532257080078,109.66105651855469,108.18927001953125
31,65,164,135,39,44,59,24,43.0,163.0,171.0,124.0,60.0,34.0,22.0,23.0,-18.295974731445312,28.892568588256836,18.972911834716797,-3.630944013595581,-25.79197883605957,-45.840660095214844,36.1038818359375,0.07904127985239029,-43.6883659362793,-51.66996765136719,-45.4954833984375,-28.44122314453125,135.23252868652344,109.53119659423828,127.99644470214844,114.92084503173828,109.71366119384766,108.10234832763672
29,60,127,131,39,41,53,24,42.0,182.0,161.0,109.0,59.0,35.0,22.0,21.0,-18.289697647094727,28.613309860229492,19.012271881103516,-3.616358995437622,-25.7878360748291,-45.795310974121094,36.08074951171875,0.21386058628559113,-43.714473724365234,-51.70998764038086,-45.544166564941406,-28.461502075195312,135.09555053710938,107.94297790527344,127.95935821533203,114.93785095214844,109.74934387207031,108.03652954101562
29,58,132,143,39,43,57,24,41.0,198.0,136.0,126.0,66.0,32.0,21.0,21.0,-18.17863655090332,28.831106185913086,19.229272842407227,-3.5010499954223633,-25.698200225830078,-45.73834991455078,36.063926696777344,0.5382428765296936,-43.716796875,-51.76885986328125,-45.61719512939453,-28.55081558227539,134.8345489501953,106.23141479492188,127.80408477783203,114.92913818359375,109.7792739868164,108.04942321777344
30,67,178,150,51,44,55,22,43.0,186.0,135.0,131.0,66.0,32.0,22.0,21.0,-18.113962173461914,29.112754821777344,19.339000701904297,-3.4286367893218994,-25.637643814086914,-45.68597412109375,36.05805206298828,0.6758573055267334,-43.714630126953125,-51.78518295288086,-45.64218521118164,-28.584247589111328,134.74717712402344,105.84457397460938,127.7406997680664,114.91203308105469,109.77897644042969,108.05023193359375
26,69,225,138,60,43,55,26,45.0,212.0,133.0,120.0,66.0,28.0,24.0,24.0,-17.865859985351562,30.95094108581543,19.802486419677734,-3.103109359741211,-25.35545539855957,-45.48408889770508,36.04364776611328,1.29761803150177,-43.67059326171875,-51.8168830871582,-45.70650100708008,-28.68299674987793,134.42974853515625,104.9394302368164,127.3833999633789,114.74553680419922,109.68331909179688,107.95865631103516
26,72,236,140,69,40,46,25,55.0,218.0,128.0,118.0,59.0,28.0,24.0,23.0,-17.543365478515625,34.872947692871094,20.39250373840332,-2.6560158729553223,-24.936553955078125,-45.17631530761719,36.0651969909668,2.5305943489074707,-43.5925178527832,-51.779197692871094,-45.72320556640625,-28.71587371826172,134.05821228027344,104.85726165771484,126.90767669677734,114.35011291503906,109.41382598876953,107.64094543457031
28,81,249,134,70,42,50,26,54.0,201.0,130.0,122.0,63.0,28.0,23.0,23.0,-17.484819412231445,36.45505905151367,20.528331756591797,-2.5549798011779785,-24.81614112854004,-45.09608459472656,36.064964294433594,3.0909335613250732,-43.59135818481445,-51.77461624145508,-45.723201751708984,-28.730358123779297,133.99069213867188,105.14826202392578,126.8384780883789,114.24427795410156,109.32525634765625,107.54846954345703
34,94,263,124,71,39,44,27,58.0,215.0,137.0,118.0,54.0,27.0,22.0,22.0,-17.379907608032227,40.5446891784668,20.695505142211914,-2.3778998851776123,-24.615928649902344,-44.981449127197266,36.05330276489258,4.680479526519775,-43.69477081298828,-51.76573944091797,-45.708797454833984,-28.740419387817383,133.8831024169922,106.2537612915039,126.86060333251953,114.00209045410156,109.08260345458984,107.29073333740234
36,100,258,114,67,40,47,28,57.0,210.0,113.0,113.0,53.0,26.0,22.0,23.0,-17.348846435546875,43.6114616394043,20.815277099609375,-2.2279212474823,-24.46292495727539,-44.87144470214844,35.965065002441406,6.085144519805908,-43.773231506347656,-51.78826904296875,-45.746517181396484,-28.772117614746094,133.9564208984375,107.43734741210938,126.83969116210938,113.83927917480469,108.91768646240234,107.06873321533203
38,99,231,104,67,44,53,27,53.0,209.0,154.0,115.0,54.0,27.0,19.0,21.0,-17.36264419555664,44.45302963256836,20.899280548095703,-2.1232120990753174,-24.36911964416504,-44.799034118652344,35.88874816894531,6.5250678062438965,-43.793479919433594,-51.809661865234375,-45.78577423095703,-28.8266544342041,134.05642700195312,107.86915588378906,126.81929016113281,113.78746795654297,108.86477661132812,107.01144409179688
37,99,221,104,60,47,58,28,40.0,197.0,160.0,121.0,52.0,24.0,20.0,21.0,-17.388586044311523,46.57221221923828,21.010055541992188,-1.8778926134109497,-24.096240997314453,-44.52730941772461,35.608036041259766,7.394688606262207,-43.94984436035156,-51.91806411743164,-45.929954528808594,-28.998952865600586,134.49349975585938,109.85399627685547,127.0975112915039,113.82875061035156,108.79695892333984,106.8411865234375
35,95,227,155,63,46,59,26,45.0,208.0,157.0,134.0,51.0,24.0,22.0,22.0,-17.340911865234375,47.754913330078125,20.91678237915039,-1.8519376516342163,-24.04067611694336,-44.40102767944336,35.49260330200195,7.626133441925049,-43.985687255859375,-51.944725036621094,-45.96116638183594,-29.045286178588867,134.66744995117188,111.59671020507812,127.12519073486328,113.86076354980469,108.73344421386719,106.72769927978516
31,85,219,166,61,48,60,26,40.0,177.0,147.0,127.0,51.0,26.0,22.0,21.0,-17.30843734741211,48.69108581542969,20.833105087280273,-1.863891839981079,-24.02042007446289,-44.306949615478516,35.3980827331543,7.7773919105529785,-43.95751190185547,-51.962669372558594,-45.94068908691406,-29.065643310546875,134.8342742919922,113.56558227539062,127.04234313964844,113.88134002685547,108.61064910888672,106.6239242553711
33,81,212,169,60,52,63,26,41.0,198.0,144.0,134.0,57.0,26.0,22.0,20.0,-17.301651000976562,49.43156814575195,20.70827865600586,-1.8906264305114746,-24.041824340820312,-44.23723220825195,35.325897216796875,7.792746067047119,-43.865882873535156,-51.89059066772461,-45.8626823425293,-29.033784866333008,135.0191650390625,116.313720703125,126.92121887207031,113.82392120361328,108.4371337890625,106.4743881225586
34,77,213,160,54,54,60,23,37.0,175.0,104.0,132.0,60.0,25.0,25.0,18.0,-17.29593276977539,49.621116638183594,20.641841888427734,-1.911917805671692,-24.06648063659668,-44.22451400756836,35.29636764526367,7.696520805358887,-43.810813903808594,-51.848567962646484,-45.808902740478516,-29.01425552368164,135.10963439941406,117.97814178466797,126.838134765625,113.80810546875,108.34212493896484,106.40807342529297
32,83,211,156,56,55,66,26,38.0,167.0,99.0,126.0,62.0,25.0,24.0,18.0,-17.297578811645508,49.615047454833984,20.558372497558594,-1.9482113122940063,-24.08835220336914,-44.230369567871094,35.26144027709961,7.511045455932617,-43.79824447631836,-51.83558654785156,-45.77945327758789,-29.005964279174805,135.2136688232422,119.55260467529297,126.85494995117188,113.8505859375,108.31532287597656,106.37744903564453
35,88,195,111,54,58,62,28,34.0,151.0,100.0,162.0,62.0,26.0,22.0,18.0,-17.310800552368164,49.22930145263672,20.359577178955078,-2.099069118499756,-24.188976287841797,-44.28812026977539,35.149009704589844,6.885596752166748,-43.91779327392578,-51.93764877319336,-45.81716537475586,-29.020090103149414,135.46240234375,121.79338073730469,127.1300048828125,114.12535095214844,108.44200897216797,106.40514373779297
33,84,179,95,54,58,64,28,34.0,147.0,106.0,162.0,67.0,28.0,21.0,18.0,-17.33342742919922,48.69565200805664,20.211612701416016,-2.248023509979248,-24.31650161743164,-44.36711883544922,35.04463195800781,6.2894721031188965,-44.03355407714844,-52.05728530883789,-45.88216018676758,-29.052230834960938,135.65985107421875,123.02456665039062,127.33074951171875,114.37545776367188,108.57241821289062,106.46430969238281
29,72,164,92,51,54,64,27,30.0,110.0,156.0,174.0,63.0,28.0,22.0,20.0,-17.34244728088379,47.782901763916016,20.042613983154297,-2.414896011352539,-24.44667625427246,-44.474403381347656,34.922142028808594,5.442912578582764,-44.21017837524414,-52.1941032409668,-45.95121765136719,-29.11350440979004,135.84823608398438,123.94779205322266,127.58016204833984,114.59723663330078,108.69918823242188,106.59261322021484
26,71,138,95,48,47,66,30,29.0,102.0,162.0,187.0,63.0,29.0,20.0,19.0,-17.374740600585938,44.829715728759766,19.78221321105957,-2.6481101512908936,-24.678102493286133,-44.65727615356445,34.73515701293945,3.338531017303467,-44.466068267822266,-52.3262939453125,-46.0473747253418,-29.189611434936523,136.05755615234375,124.07070922851562,127.80826568603516,114.72866821289062,108.8574447631836,106.75532531738281
29,57,120,88,50,46,58,29,32.0,96.0,159.0,193.0,63.0,28.0,20.0,22.0,-17.39101791381836,41.803321838378906,19.646982192993164,-2.760423421859741,-24.794981002807617,-44.744197845458984,34.65355682373047,1.5662174224853516,-44.59499740600586,-52.36220932006836,-46.07960510253906,-29.189191818237305,136.11184692382812,122.94345092773438,127.87847137451172,114.73875427246094,108.90928649902344,106.78369140625
28,57,143,96,51,52,69,29,32.0,99.0,167.0,194.0,63.0,29.0,21.0,21.0,-17.432592391967773,38.47159194946289,19.502012252807617,-2.884260892868042,-24.90088653564453,-44.84381103515625,34.59315490722656,-0.009404624812304974,-44.70456314086914,-52.39640426635742,-46.07713317871094,-29.172500610351562,136.1161346435547,121.02865600585938,127.91361999511719,114.7357177734375,108.91646575927734,106.7851333618164
28,61,158,93,49,50,67,29,31.0,102.0,182.0,197.0,55.0,25.0,22.0,22.0,-17.542417526245117,34.08833694458008,19.22113609313965,-3.184082269668579,-25.105796813964844,-45.0379638671875,34.514278411865234,-1.4925599098205566,-44.879756927490234,-52.49893569946289,-46.084205627441406,-29.180570602416992,136.0261993408203,117.79439544677734,127.94245910644531,114.79410552978516,108.9423599243164,106.86372375488281
27,71,157,96,52,50,64,29,34.0,110.0,180.0,186.0,57.0,27.0,22.0,20.0,-17.71795654296875,30.292707443237305,18.953475952148438,-3.4932265281677246,-25.388652801513672,-45.304927825927734,34.43854522705078,-2.0709078311920166,-45.009464263916016,-52.61175537109375,-46.16876220703125,-29.26348876953125,135.89234924316406,114.76911163330078,127.86481475830078,114.83287811279297,109.05020141601562,107.02471160888672
29,75,175,127,66,52,60,28,36.0,121.0,179.0,174.0,56.0,24.0,21.0,20.0,-17.837377548217773,27.053815841674805,18.766460418701172,-3.7008471488952637,-25.61115264892578,-45.459136962890625,34.374210357666016,-2.152984142303467,-45.112911224365234,-52.69364547729492,-46.24627685546875,-29.306472778320312,135.78292846679688,112.08068084716797,127.77791595458984,114.83615112304688,109.13619995117188,107.09647369384766
28,78,189,149,64,54,68,29,39.0,142.0,181.0,172.0,59.0,26.0,22.0,16.0,-17.9384822845459,25.209318161010742,18.604202270507812,-3.8795886039733887,-25.803508758544922,-45.615394592285156,34.31197738647461,-2.031752824783325,-45.20951843261719,-52.767642974853516,-46.31718444824219,-29.357030868530273,135.6717071533203,110.06295776367188,127.67976379394531,114.80968475341797,109.1824951171875,107.15093231201172
27,73,167,143,64,49,56,27,37.0,141.0,175.0,166.0,57.0,26.0,22.0,17.0,-18.079086303710938,23.620756149291992,18.44402313232422,-4.09102201461792,-26.03026008605957,-45.80291748046875,34.20829772949219,-1.6259496212005615,-45.327186584472656,-52.889827728271484,-46.4293212890625,-29.459218978881836,135.49777221679688,107.54590606689453,127.48819732666016,114.75542449951172,109.20690155029297,107.20716094970703
28,78,158,144,66,49,53,27,42.0,150.0,172.0,170.0,56.0,26.0,20.0,17.0,-18.23936653137207,22.987716674804688,18.377883911132812,-4.246245861053467,-26.204429626464844,-45.944942474365234,34.09246826171875,-1.0237152576446533,-45.412193298339844,-53.01971435546875,-46.56730270385742,-29.59885025024414,135.3222198486328,105.72571563720703,127.28346252441406,114.69312286376953,109.21088409423828,107.22982025146484
32,69,164,150,64,47,54,26,42.0,167.0,151.0,178.0,53.0,22.0,18.0,18.0,-18.269100189208984,23.001354217529297,18.393369674682617,-4.262176036834717,-26.240886688232422,-45.970916748046875,34.06529998779297,-0.8419681191444397,-45.428749084472656,-53.04401779174805,-46.60423278808594,-29.63689422607422,135.2711639404297,105.36799621582031,127.22433471679688,114.65821075439453,109.208251953125,107.2367935180664
30,62,145,125,55,44,52,25,43.0,170.0,151.0,179.0,53.0,24.0,19.0,21.0,-18.26622200012207,24.154293060302734,18.548860549926758,-4.236737251281738,-26.26236343383789,-46.02294921875,34.0135498046875,-0.31654515862464905,-45.45948028564453,-53.13160705566406,-46.7234001159668,-29.787031173706055,134.956298828125,104.49676513671875,126.99744415283203,114.53583526611328,109.16243743896484,107.24498748779297
31,72,152,101,52,47,54,25,42.0,194.0,162.0,179.0,50.0,24.0,18.0,21.0,-18.27273178100586,25.968603134155273,18.716703414916992,-4.139279842376709,-26.19282341003418,-46.00908660888672,34.009639739990234,0.012592083774507046,-45.427574157714844,-53.14849090576172,-46.7651481628418,-29.884029388427734,134.73533630371094,104.34992980957031,126.88545227050781,114.44965362548828,109.08831787109375,107.22191619873047
30,84,191,113,53,46,54,25,45.0,200.0,161.0,138.0,51.0,25.0,18.0,21.0,-18.29003143310547,28.776744842529297,18.914304733276367,-3.9976749420166016,-26.09283447265625,-45.9566764831543,34.03761672973633,0.44327548146247864,-45.353759765625,-53.117042541503906,-46.794578552246094,-29.948720932006836,134.52777099609375,104.6624755859375,126.81098937988281,114.34761047363281,109.04029846191406,107.16847229003906
37,95,226,115,49,47,58,26,45.0,207.0,154.0,133.0,53.0,25.0,18.0,20.0,-18.27117919921875,33.97528076171875,19.15787124633789,-3.792010545730591,-25.93868637084961,-45.87778091430664,34.085601806640625,1.2036293745040894,-45.29554748535156,-53.056583404541016,-46.791786193847656,-30.008636474609375,134.29051208496094,105.72869873046875,126.79293823242188,114.18550872802734,108.93096923828125,107.11133575439453
34,97,238,106,52,49,56,26,48.0,196.0,142.0,118.0,56.0,26.0,18.0,22.0,-18.240224838256836,36.42927169799805,19.266210556030273,-3.694516181945801,-25.864423751831055,-45.8368034362793,34.108062744140625,1.716525673866272,-45.2994499206543,-53.02606964111328,-46.78439712524414,-30.018436431884766,134.18309020996094,106.20159149169922,126.8099594116211,114.07414245605469,108.86544036865234,107.0687484741211
34,101,248,104,49,58,66,27,46.0,190.0,137.0,114.0,53.0,26.0,19.0,19.0,-18.23727798461914,39.327579498291016,19.274141311645508,-3.6488263607025146,-25.82096290588379,-45.81497573852539,34.11707305908203,2.507028341293335,-45.35725402832031,-53.01444625854492,-46.76502227783203,-29.99869728088379,134.1345977783203,107.0898208618164,126.94498443603516,114.01337432861328,108.79164123535156,106.98125457763672
33,94,245,119,53,57,57,29,46.0,155.0,159.0,111.0,50.0,26.0,19.0,19.0,-18.23943328857422,42.4427490234375,19.190521240234375,-3.6578869819641113,-25.802927017211914,-45.80819320678711,34.1166877746582,3.4845733642578125,-45.45905303955078,-53.02295684814453,-46.74213409423828,-29.901996612548828,134.13162231445312,108.31221008300781,127.15776062011719,114.00557708740234,108.73260498046875,106.76639556884766
36,85,218,120,52,58,61,30,43.0,157.0,158.0,116.0,47.0,24.0,18.0,19.0,-18.255252838134766,44.19777297973633,19.244260787963867,-3.5695321559906006,-25.728313446044922,-45.76728057861328,34.08659362792969,4.2791619300842285,-45.45707321166992,-53.009796142578125,-46.74545669555664,-29.86638641357422,134.21922302246094,109.07344818115234,127.17760467529297,113.98562622070312,108.72286987304688,106.6614761352539
30,74,194,134,60,60,67,30,41.0,135.0,149.0,129.0,55.0,28.0,19.0,21.0,-18.28352165222168,45.570804595947266,19.310558319091797,-3.449058771133423,-25.617643356323242,-45.688636779785156,34.031002044677734,4.919338703155518,-45.45091247558594,-53.00264358520508,-46.740291595458984,-29.851221084594727,134.47276306152344,110.13513946533203,127.33379364013672,114.09060668945312,108.76233673095703,106.62782287597656
30,69,181,164,61,66,76,31,36.0,125.0,141.0,135.0,51.0,29.0,21.0,19.0,-18.438093185424805,46.88542556762695,19.15700340270996,-3.3563828468322754,-25.466991424560547,-45.53872299194336,33.87160110473633,5.34434175491333,-45.47433853149414,-53.03031921386719,-46.73602294921875,-29.790189743041992,135.22364807128906,112.66239166259766,127.84822845458984,114.54443359375,108.94265747070312,106.53178405761719
30,68,177,161,59,57,68,30,34.0,121.0,139.0,145.0,54.0,29.0,22.0,20.0,-18.517324447631836,47.40684509277344,18.96670913696289,-3.3921048641204834,-25.438880920410156,-45.45840835571289,33.71397399902344,5.21359395980835,-45.526756286621094,-53.112579345703125,-46.76715087890625,-29.75351905822754,135.77598571777344,114.63003540039062,128.16929626464844,114.92456817626953,109.09941101074219,106.45774841308594
29,67,162,146,57,60,65,25,32.0,115.0,105.0,148.0,58.0,29.0,23.0,22.0,-18.643756866455078,47.66362380981445,18.798015594482422,-3.4589388370513916,-25.447399139404297,-45.424251556396484,33.568782806396484,5.0037102699279785,-45.55181884765625,-53.17667007446289,-46.79241943359375,-29.733129501342773,136.28448486328125,116.61761474609375,128.46926879882812,115.2660140991211,109.24784088134766,106.41862487792969
25,72,160,136,62,63,63,25,36.0,104.0,110.0,150.0,64.0,31.0,23.0,21.0,-18.883018493652344,47.49384689331055,18.539762496948242,-3.6360924243927,-25.59723663330078,-45.48575973510742,33.4185676574707,4.5041632652282715,-45.483280181884766,-53.1975212097168,-46.82663345336914,-29.707555770874023,136.8851776123047,119.57722473144531,128.70790100097656,115.64924621582031,109.52214813232422,106.46926879882812
24,65,137,136,60,59,54,25,34.0,107.0,124.0,130.0,62.0,28.0,23.0,21.0,-18.979419708251953,46.96369171142578,18.437833786010742,-3.7022321224212646,-25.694501876831055,-45.550601959228516,33.373634338378906,4.0328874588012695,-45.41854476928711,-53.160282135009766,-46.823116302490234,-29.689128875732422,137.10984802246094,121.24320220947266,128.74232482910156,115.75364685058594,109.63348388671875,106.51371002197266
24,63,114,95,56,53,41,25,32.0,102.0,138.0,126.0,61.0,29.0,23.0,21.0,-19.05008888244629,46.215614318847656,18.36685562133789,-3.773120880126953,-25.78879165649414,-45.61257553100586,33.342403411865234,3.4870684146881104,-45.369102478027344,-53.13862609863281,-46.821632385253906,-29.676170349121094,137.27174377441406,122.64575958251953,128.76797485351562,115.84315490722656,109.7334976196289,106.57316589355469
27,70,110,98,59,62,60,28,33.0,112.0,162.0,110.0,62.0,32.0,25.0,21.0,-19.1569881439209,44.23783493041992,18.270797729492188,-3.8724443912506104,-25.925630569458008,-45.731571197509766,33.299198150634766,2.2843382358551025,-45.30790710449219,-53.08502197265625,-46.79912567138672,-29.66733741760254,137.45326232910156,124.18270874023438,128.76934814453125,115.88797760009766,109.80760192871094,106.65679931640625
29,72,135,142,62,58,65,29,33.0,111.0,158.0,109.0,60.0,32.0,22.0,20.0,-19.165481567382812,42.265228271484375,18.28950309753418,-3.851966381072998,-25.934844970703125,-45.76326370239258,33.296932220458984,1.281204104423523,-45.24308395385742,-53.01219177246094,-46.74943542480469,-29.657180786132812,137.4803466796875,124.63873291015625,128.65325927734375,115.79829406738281,109.75627136230469,106.68804931640625
27,66,136,153,60,60,66,28,32.0,108.0,173.0,131.0,54.0,32.0,25.0,21.0,-19.164661407470703,39.805763244628906,18.356386184692383,-3.7251288890838623,-25.844032287597656,-45.765419006347656,33.29796600341797,0.1954013705253601,-45.17349624633789,-52.88542556762695,-46.66096115112305,-29.65257453918457,137.480224609375,124.40594482421875,128.51336669921875,115.59783172607422,109.61042785644531,106.68933868408203
26,65,142,140,63,69,73,29,33.0,98.0,163.0,126.0,46.0,30.0,25.0,21.0,-19.163265228271484,36.504920959472656,18.296005249023438,-3.7508633136749268,-25.832429885864258,-45.84982681274414,33.30715560913086,-1.0939170122146606,-45.19347381591797,-52.83894348144531,-46.5709114074707,-29.638404846191406,137.4508514404297,123.19381713867188,128.51113891601562,115.54596710205078,109.51739501953125,106.74395751953125
27,69,152,140,68,69,74,30,33.0,96.0,148.0,122.0,46.0,30.0,25.0,21.0,-19.21297836303711,32.058433532714844,18.017234802246094,-3.9856960773468018,-26.04218292236328,-46.07350158691406,33.31899642944336,-2.5031821727752686,-45.31649398803711,-52.8587532043457,-46.548091888427734,-29.626068115234375,137.30401611328125,120.55233764648438,128.5757293701172,115.57544708251953,109.56002807617188,106.84443664550781
25,64,149,152,68,61,66,29,32.0,87.0,114.0,129.0,46.0,29.0,21.0,19.0,-19.260103225708008,29.068227767944336,17.81427574157715,-4.159305572509766,-26.18607521057129,-46.220367431640625,33.3255500793457,-3.107325553894043,-45.3995246887207,-52.884647369384766,-46.54179382324219,-29.619874954223633,137.1744842529297,118.4038314819336,128.5810546875,115.58773040771484,109.58663940429688,106.89984893798828
24,61,139,125,65,60,65,30,34.0,84.0,115.0,129.0,50.0,28.0,22.0,19.0,-19.28081703186035,27.66082191467285,17.72696304321289,-4.248260498046875,-26.260583877563477,-46.30210494995117,33.32606887817383,-3.2986319065093994,-45.435203552246094,-52.89958190917969,-46.54357147216797,-29.61722183227539,137.1027374267578,117.26050567626953,128.53643798828125,115.57250213623047,109.59677124023438,106.92910766601562
24,66,132,109,62,56,65,30,31.0,73.0,97.0,115.0,49.0,26.0,21.0,18.0,-19.26929473876953,24.44322395324707,17.589635848999023,-4.484766483306885,-26.46513557434082,-46.46988296508789,33.329200744628906,-3.4324748516082764,-45.506080627441406,-52.957794189453125,-46.547176361083984,-29.602785110473633,136.85182189941406,114.08837127685547,128.20413208007812,115.44776153564453,109.58656311035156,107.02705383300781
31,67,129,115,61,47,57,27,32.0,81.0,94.0,108.0,52.0,29.0,21.0,20.0,-19.223527908325195,22.85419464111328,17.546926498413086,-4.619367599487305,-26.568092346191406,-46.558372497558594,33.317596435546875,-3.2922916412353516,-45.57967758178711,-53.01029586791992,-46.53147506713867,-29.596506118774414,136.6409912109375,111.9769287109375,127.94769287109375,115.32469177246094,109.51100158691406,107.07608032226562
31,71,123,138,54,44,54,25,33.0,125.0,141.0,138.0,59.0,26.0,21.0,21.0,-19.185401916503906,21.58806610107422,17.554378509521484,-4.689028739929199,-26.63433074951172,-46.61918640136719,33.25666046142578,-2.9318370819091797,-45.66990280151367,-53.08339309692383,-46.5706901550293,-29.647384643554688,136.42991638183594,109.62133026123047,127.65907287597656,115.14706420898438,109.40765380859375,107.08280181884766
30,68,127,126,52,45,55,25,34.0,133.0,164.0,135.0,59.0,25.0,21.0,23.0,-19.103382110595703,20.92111587524414,17.654897689819336,-4.676419734954834,-26.638938903808594,-46.55061721801758,33.13441467285156,-2.5856800079345703,-45.79447937011719,-53.19199752807617,-46.66032409667969,-29.725358963012695,136.14013671875,107.4337158203125,127.22589874267578,114.84271240234375,109.21512603759766,106.98428344726562
31,70,135,116,49,44,54,24,42.0,171.0,200.0,137.0,55.0,25.0,22.0,24.0,-19.012727737426758,20.966365814208984,17.810110092163086,-4.594422817230225,-26.572359085083008,-46.460811614990234,33.06135177612305,-2.36893892288208,-45.84470748901367,-53.261043548583984,-46.72194290161133,-29.81187629699707,135.88034057617188,106.44244384765625,126.87806701660156,114.60242462158203,109.03271484375,106.89850616455078
32,63,150,136,52,42,56,24,46.0,183.0,205.0,128.0,59.0,25.0,21.0,25.0,-18.8549747467041,21.87418556213379,18.094852447509766,-4.408819198608398,-26.423768997192383,-46.3129768371582,33.00881576538086,-1.9435217380523682,-45.87112808227539,-53.32170486450195,-46.80662536621094,-29.926189422607422,135.54730224609375,105.5747299194336,126.53192138671875,114.33172607421875,108.83950805664062,106.78402709960938
26,70,160,141,47,43,57,25,50.0,197.0,228.0,133.0,57.0,24.0,21.0,24.0,-18.523042678833008,24.48521614074707,18.670616149902344,-3.977794647216797,-26.083982467651367,-46.049110412597656,33.0276985168457,-1.4033393859863281,-45.864253997802734,-53.34270477294922,-46.90081024169922,-30.08517837524414,134.8401336669922,104.65534973144531,126.03627014160156,113.83257293701172,108.48590087890625,106.53619384765625
25,70,198,125,49,45,56,27,51.0,188.0,215.0,101.0,49.0,23.0,21.0,23.0,-18.404863357543945,25.641868591308594,18.86307144165039,-3.829738140106201,-25.956417083740234,-45.96000671386719,33.03036117553711,-1.2962603569030762,-45.88294982910156,-53.3619384765625,-46.92906951904297,-30.131420135498047,134.6443328857422,104.528076171875,125.94092559814453,113.70653533935547,108.38456726074219,106.4621353149414
26,68,203,160,49,46,52,27,49.0,199.0,205.0,99.0,47.0,23.0,21.0,23.0,-18.26597785949707,29.73877716064453,19.25620460510254,-3.5262770652770996,-25.675989151000977,-45.7589225769043,33.045475006103516,-0.8152749538421631,-45.93645095825195,-53.36600112915039,-46.95673751831055,-30.209491729736328,134.33120727539062,104.88874816894531,125.97356414794922,113.45722198486328,108.15269470214844,106.28412628173828
29,73,195,159,48,44,51,27,42.0,165.0,177.0,92.0,45.0,24.0,20.0,23.0,-18.19662094116211,33.041748046875,19.46360206604004,-3.3701906204223633,-25.50143051147461,-45.618526458740234,33.06143569946289,-0.40484052896499634,-45.99850845336914,-53.38886642456055,-46.96023178100586,-30.248327255249023,134.18026733398438,105.45227813720703,126.11705780029297,113.3804931640625,108.0237045288086,106.19979095458984
29,75,190,146,44,47,47,28,46.0,171.0,165.0,100.0,46.0,27.0,21.0,24.0,-18.148805618286133,34.08803939819336,19.533275604248047,-3.3071205615997314,-25.44197654724121,-45.56962585449219,33.06897735595703,-0.28342941403388977,-46.02172088623047,-53.38996124267578,-46.96432113647461,-30.26400375366211,134.1171875,105.55326843261719,126.1336898803711,113.33194732666016,107.98692321777344,106.19251251220703
29,70,194,147,48,50,49,27,44.0,177.0,149.0,101.0,49.0,28.0,20.0,24.0,-18.03716468811035,36.55862808227539,19.64943504333496,-3.17693829536438,-25.33256721496582,-45.46571731567383,33.080467224121094,0.06825904548168182,-46.10973358154297,-53.4046630859375,-46.98777389526367,-30.302223205566406,133.9840545654297,105.88798522949219,126.22927856445312,113.23846435546875,107.92921447753906,106.18932342529297
30,66,155,145,51,52,50,27,43.0,166.0,131.0,110.0,52.0,29.0,22.0,24.0,-17.967458724975586,38.35455322265625,19.6945743560791,-3.0995049476623535,-25.257041931152344,-45.39602279663086,33.07695770263672,0.39103224873542786,-46.18394470214844,-53.421878814697266,-47.00223922729492,-30.314388275146484,133.9367218017578,106.19789123535156,126.32550811767578,113.20738983154297,107.90612030029297,106.17732238769531
32,70,142,136,55,53,47,26,43.0,144.0,162.0,110.0,51.0,28.0,22.0,25.0,-17.955724716186523,38.811668395996094,19.701120376586914,-3.0821714401245117,-25.238739013671875,-45.380828857421875,33.07487869262695,0.4738507866859436,-46.199703216552734,-53.425140380859375,-47.00474548339844,-30.311080932617188,133.93104553222656,106.30376434326172,126.35050964355469,113.2030258178711,107.90180969238281,106.16319274902344
28,63,135,146,55,51,42,24,42.0,158.0,185.0,119.0,54.0,28.0,22.0,25.0,-17.930971145629883,40.207557678222656,19.700363159179688,-3.0596024990081787,-25.201194763183594,-45.3463134765625,33.071468353271484,0.8035106062889099,-46.240875244140625,-53.4413948059082,-47.00628662109375,-30.2786808013916,133.93218994140625,106.72277069091797,126.43035125732422,113.22150421142578,107.89763641357422,106.0978012084961
32,65,144,158,59,50,54,21,38.0,176.0,189.0,119.0,53.0,26.0,23.0,24.0,-17.891530990600586,40.91997146606445,19.757596969604492,-2.9833974838256836,-25.124574661254883,-45.2989616394043,33.05397415161133,1.0158864259719849,-46.250572204589844,-53.43839645385742,-47.007476806640625,-30.248233795166016,134.01669311523438,106.88922119140625,126.45611572265625,113.23033142089844,107.92515563964844,106.0754165649414
33,60,125,153,55,45,55,20,38.0,175.0,201.0,117.0,49.0,23.0,23.0,25.0,-17.877567291259766,41.236915588378906,19.777694702148438,-2.94851016998291,-25.095504760742188,-45.284122467041016,33.048336029052734,1.1285271644592285,-46.25149917602539,-53.4326171875,-47.004600524902344,-30.23834800720215,134.05508422851562,106.9905014038086,126.468994140625,113.23451232910156,107.93531036376953,106.0734634399414
35,72,137,157,54,45,60,19,44.0,172.0,225.0,109.0,44.0,24.0,21.0,25.0,-17.839292526245117,42.161808013916016,19.847463607788086,-2.8443856239318848,-24.985734939575195,-45.224754333496094,33.038299560546875,1.4421945810317993,-46.234920501708984,-53.40668869018555,-46.978153228759766,-30.18092155456543,134.22036743164062,107.47146606445312,126.54928588867188,113.2936782836914,107.98221588134766,106.04646301269531
35,69,151,131,49,40,58,18,59.0,203.0,222.0,134.0,49.0,26.0,21.0,25.0,-17.804367065429688,43.397640228271484,19.867595672607422,-2.747875213623047,-24.86697006225586,-45.14120864868164,33.03062057495117,1.8960555791854858,-46.22669982910156,-53.38065719604492,-46.93928146362305,-30.119096755981445,134.4141387939453,108.4239730834961,126.69943237304688,113.39149475097656,108.01195526123047,105.99042510986328
45,78,166,142,50,41,60,22,64.0,209.0,222.0,146.0,53.0,25.0,21.0,23.0,-17.757144927978516,45.1853141784668,19.865760803222656,-2.6308164596557617,-24.72743034362793,-45.035621643066406,33.002201080322266,2.5902557373046875,-46.24000549316406,-53.38142776489258,-46.921295166015625,-30.077964782714844,134.60162353515625,109.99980926513672,126.88519287109375,113.51940155029297,108.01918029785156,105.87184143066406
43,75,159,131,42,38,48,24,64.0,201.0,231.0,142.0,49.0,26.0,21.0,23.0,-17.722394943237305,49.04814910888672,19.878896713256836,-2.3788022994995117,-24.458906173706055,-44.82803726196289,32.9669075012207,4.599897384643555,-46.20763397216797,-53.34745788574219,-46.86949157714844,-29.990171432495117,134.93240356445312,113.69365692138672,127.20059204101562,113.70508575439453,107.9283676147461,105.5108642578125
47,99,231,170,60,39,58,26,63.0,220.0,231.0,158.0,52.0,28.0,23.0,21.0,-17.68373680114746,51.647056579589844,19.921466827392578,-2.1974592208862305,-24.270509719848633,-44.71640396118164,32.95852279663086,6.193423271179199,-46.18117904663086,-53.31532669067383,-46.827728271484375,-29.95247459411621,135.13414001464844,116.45185852050781,127.44470977783203,113.81966400146484,107.84981536865234,105.29106140136719
45,94,228,174,58,33,55,25,58.0,227.0,209.0,167.0,63.0,28.0,23.0,21.0,-17.640972137451172,54.85044479370117,19.942628860473633,-2.026670455932617,-24.159069061279297,-44.63861083984375,32.973087310791016,8.503155708312988,-46.10089111328125,-53.28055191040039,-46.81505584716797,-29.920547485351562,135.29588317871094,120.42101287841797,127.58182525634766,113.93938446044922,107.77439880371094,105.03897857666016
46,92,228,175,58,34,57,26,45.0,212.0,186.0,151.0,63.0,29.0,23.0,21.0,-17.61625099182129,56.47897720336914,19.96855926513672,-1.9348175525665283,-24.101839065551758,-44.59988021850586,32.99540328979492,9.88625717163086,-46.03054428100586,-53.2545166015625,-46.801109313964844,-29.906705856323242,135.3681182861328,123.0091552734375,127.61943054199219,114.00406646728516,107.72880554199219,104.91058349609375
39,84,222,216,58,35,55,27,41.0,227.0,172.0,127.0,60.0,28.0,22.0,22.0,-17.571508407592773,57.83011245727539,20.00878143310547,-1.8365825414657593,-24.01181983947754,-44.54563522338867,33.02786636352539,11.14190673828125,-45.98346710205078,-53.220619201660156,-46.760128021240234,-29.88922691345215,135.43402099609375,125.40160369873047,127.72728729248047,114.06771850585938,107.66932678222656,104.80854797363281
38,93,214,214,68,40,56,26,42.0,225.0,162.0,126.0,62.0,27.0,22.0,22.0,-17.50662612915039,59.33753204345703,20.055532455444336,-1.7228437662124634,-23.870445251464844,-44.466373443603516,33.083866119384766,12.756165504455566,-45.94547653198242,-53.16975021362305,-46.68617630004883,-29.86589813232422,135.49038696289062,128.5074462890625,127.93401336669922,114.13939666748047,107.58179473876953,104.70111846923828
33,75,144,183,58,50,64,25,44.0,187.0,162.0,115.0,63.0,29.0,19.0,25.0,-17.452470779418945,60.10102844238281,20.087177276611328,-1.6556414365768433,-23.790815353393555,-44.416481018066406,33.12589645385742,13.605517387390137,-45.92359161376953,-53.1356201171875,-46.63931655883789,-29.842702865600586,135.5110321044922,130.15370178222656,128.0532989501953,114.17115020751953,107.5295639038086,104.6366958618164
33,76,156,176,62,55,64,26,46.0,200.0,161.0,108.0,58.0,30.0,20.0,23.0,-17.40190887451172,60.79625701904297,20.117591857910156,-1.597739577293396,-23.73108673095703,-44.37248992919922,33.15262222290039,14.420741081237793,-45.91551971435547,-53.111751556396484,-46.615047454833984,-29.83257484436035,135.5298309326172,131.60394287109375,128.14646911621094,114.18647766113281,107.49388122558594,104.59143829345703
29,83,159,178,64,56,65,28,46.0,206.0,168.0,128.0,64.0,33.0,21.0,23.0,-17.337984085083008,61.64073181152344,20.1689395904541,-1.5205060243606567,-23.669404983520508,-44.3331184387207,33.169700622558594,15.513951301574707,-45.91108322143555,-53.09397506713867,-46.60720443725586,-29.842430114746094,135.57957458496094,133.44366455078125,128.24281311035156,114.1983871459961,107.46637725830078,104.56746673583984
28,85,192,120,69,56,64,25,46.0,228.0,168.0,138.0,65.0,34.0,22.0,22.0,-17.275407791137695,62.05647277832031,20.214218139648438,-1.467118740081787,-23.610069274902344,-44.284305572509766,33.183082580566406,16.02800178527832,-45.91145706176758,-53.08720016479492,-46.59589767456055,-29.831785202026367,135.61656188964844,134.4071502685547,128.30584716796875,114.21385955810547,107.45262908935547,104.54359436035156
35,77,207,114,66,55,63,26,47.0,226.0,184.0,145.0,70.0,36.0,23.0,22.0,-17.205862045288086,62.46587371826172,20.265546798706055,-1.4210598468780518,-23.551517486572266,-44.23762512207031,33.1916389465332,16.54077911376953,-45.918766021728516,-53.09085464477539,-46.58308410644531,-29.832578659057617,135.67068481445312,135.36668395996094,128.36680603027344,114.2406234741211,107.44461059570312,104.55836486816406
33,73,211,114,63,50,50,25,45.0,249.0,164.0,137.0,68.0,32.0,23.0,20.0,-17.10213851928711,63.050193786621094,20.343732833862305,-1.3777966499328613,-23.497692108154297,-44.18498992919922,33.181724548339844,17.284311294555664,-45.954872131347656,-53.144290924072266,-46.61442184448242,-29.87855339050293,135.76483154296875,136.70193481445312,128.47071838378906,114.32923889160156,107.49069213867188,104.64271545410156
38,84,246,140,60,45,50,25,44.0,253.0,165.0,149.0,73.0,30.0,24.0,21.0,-17.03855323791504,63.46608352661133,20.404558181762695,-1.3331345319747925,-23.45976448059082,-44.14506530761719,33.16303253173828,17.87042236328125,-46.00088882446289,-53.17445755004883,-46.65436935424805,-29.926319122314453,135.84190368652344,137.5872039794922,128.58274841308594,114.3819351196289,107.5519027709961,104.72612762451172
41,81,248,141,59,43,50,23,45.0,266.0,159.0,146.0,65.0,26.0,24.0,19.0,-16.973514556884766,63.78932571411133,20.46917724609375,-1.292978048324585,-23.41912841796875,-44.10308837890625,33.13648986816406,18.264907836914062,-46.059635162353516,-53.214332580566406,-46.71213150024414,-29.97796630859375,135.9401397705078,138.2218780517578,128.72015380859375,114.45220184326172,107.65750122070312,104.83332061767578
39,83,224,128,54,40,49,23,42.0,224.0,177.0,149.0,65.0,25.0,23.0,19.0,-16.88686180114746,64.17716217041016,20.58488655090332,-1.2154337167739868,-23.32103157043457,-43.99485397338867,33.06637191772461,18.678373336791992,-46.14506149291992,-53.29962158203125,-46.80997848510742,-30.068050384521484,136.14381408691406,138.9563751220703,128.90708923339844,114.59842681884766,107.83827209472656,105.0211410522461
35,83,226,160,53,39,51,24,37.0,236.0,178.0,152.0,60.0,24.0,22.0,18.0,-16.85609245300293,64.29341125488281,20.616867065429688,-1.2024163007736206,-23.299789428710938,-43.966705322265625,33.04963684082031,18.78699493408203,-46.174346923828125,-53.33096694946289,-46.841041564941406,-30.093847274780273,136.20263671875,139.13558959960938,128.9764404296875,114.65913391113281,107.90802001953125,105.08977508544922
35,83,219,164,55,39,49,24,36.0,218.0,184.0,168.0,61.0,26.0,23.0,18.0,-16.770071029663086,64.61820220947266,20.695213317871094,-1.1551845073699951,-23.253917694091797,-43.897918701171875,33.00821304321289,19.095651626586914,-46.248680114746094,-53.41093063354492,-46.9356575012207,-30.176315307617188,136.40676879882812,139.64529418945312,129.1995086669922,114.87944793701172,108.17552947998047,105.3636703491211
35,79,170,136,55,42,51,24,36.0,193.0,223.0,158.0,56.0,27.0,21.0,19.0,-16.741214752197266,64.80052947998047,20.754396438598633,-1.1160340309143066,-23.219938278198242,-43.85718536376953,32.95976638793945,19.291112899780273,-46.30867004394531,-53.477806091308594,-47.03366470336914,-30.253204345703125,136.62496948242188,140.0426025390625,129.4264678955078,115.09654998779297,108.45183563232422,105.61251831054688
33,78,187,135,59,43,51,22,36.0,152.0,223.0,165.0,58.0,29.0,21.0,20.0,-16.72272300720215,64.85032653808594,20.778940200805664,-1.0970655679702759,-23.199399948120117,-43.83464050292969,32.94322967529297,19.319171905517578,-46.334388732910156,-53.501564025878906,-47.06886291503906,-30.28250503540039,136.68931579589844,140.12332153320312,129.5076904296875,115.16557312011719,108.5448226928711,105.69819641113281
33,73,203,158,63,51,60,23,33.0,149.0,204.0,174.0,76.0,29.0,20.0,22.0,-16.672273635864258,64.94310760498047,20.8262882232666,-1.0581790208816528,-23.17244529724121,-43.79524230957031,32.88649368286133,19.29590606689453,-46.4220085144043,-53.57984161376953,-47.19137191772461,-30.375539779663086,136.88079833984375,140.3030242919922,129.7488555908203,115.37772369384766,108.84800720214844,105.96096801757812
33,71,196,130,62,52,61,22,33.0,99.0,207.0,171.0,81.0,31.0,22.0,23.0,-16.642465591430664,64.90208435058594,20.841670989990234,-1.056741714477539,-23.17817497253418,-43.77872085571289,32.813907623291016,18.940963745117188,-46.54463577270508,-53.687068939208984,-47.3127555847168,-30.48012351989746,137.0847625732422,140.13833618164062,130.0345916748047,115.62174224853516,109.14567565917969,106.25518035888672
33,69,193,138,69,54,59,22,32.0,80.0,205.0,157.0,84.0,34.0,23.0,23.0,-16.63871192932129,64.7699966430664,20.83869171142578,-1.066900610923767,-23.185855865478516,-43.78178405761719,32.78266143798828,18.602312088012695,-46.60244369506836,-53.732242584228516,-47.3536376953125,-30.521726608276367,137.15667724609375,139.8347930908203,130.15663146972656,115.71265411376953,109.24273681640625,106.36408233642578
26,57,197,147,68,56,60,21,29.0,81.0,165.0,155.0,83.0,33.0,24.0,21.0,-16.60437774658203,63.4177131652832,20.74789047241211,-1.2037736177444458,-23.301706314086914,-43.84056854248047,32.56828308105469,15.90157699584961,-46.92953872680664,-54.0018424987793,-47.60651779174805,-30.755821228027344,137.441650390625,137.07843017578125,130.5308837890625,116.057373046875,109.6932373046875,106.88758087158203
34,54,165,145,66,54,57,22,26.0,69.0,158.0,140.0,81.0,32.0,24.0,21.0,-16.544706344604492,61.69913101196289,20.600727081298828,-1.4450942277908325,-23.521263122558594,-43.97537612915039,32.154720306396484,12.875593185424805,-47.452552795410156,-54.475337982177734,-48.047611236572266,-31.138885498046875,137.81846618652344,133.92733764648438,130.8120880126953,116.47987365722656,110.31800842285156,107.61577606201172
33,55,138,117,66,67,80,26,30.0,63.0,141.0,124.0,67.0,32.0,24.0,22.0,-16.558677673339844,58.75556182861328,20.472366333007812,-1.64154851436615,-23.700422286987305,-44.058677673339844,31.805830001831055,9.189621925354004,-47.8634147644043,-54.887596130371094,-48.44325637817383,-31.4658203125,138.05899047851562,129.9086151123047,131.03591918945312,116.88556671142578,110.88036346435547,108.1866455078125
32,59,122,117,66,65,80,27,28.0,63.0,128.0,135.0,62.0,29.0,24.0,21.0,-16.630231857299805,53.53474426269531,20.29204750061035,-1.8705124855041504,-23.72295570373535,-44.04901123046875,31.437482833862305,4.282675266265869,-48.29682922363281,-55.296329498291016,-48.70741271972656,-31.698659896850586,138.3355255126953,123.98347473144531,131.28802490234375,117.40196228027344,111.49254608154297,108.87834930419922
33,57,116,112,61,61,80,27,31.0,75.0,157.0,189.0,64.0,26.0,22.0,22.0,-16.660167694091797,49.99020767211914,20.185535430908203,-1.9029150009155273,-23.661836624145508,-43.949771881103516,31.292001724243164,1.6029772758483887,-48.49251937866211,-55.414669036865234,-48.765533447265625,-31.712236404418945,138.40823364257812,120.5843734741211,131.42788696289062,117.60115051269531,111.72947692871094,109.0907974243164
31,52,92,106,63,59,77,25,31.0,69.0,207.0,214.0,71.0,27.0,23.0,21.0,-16.684314727783203,46.7001838684082,20.10236930847168,-1.9274048805236816,-23.60772705078125,-43.93705368041992,31.16649627685547,-0.5683406591415405,-48.65678024291992,-55.51358413696289,-48.804649353027344,-31.762798309326172,138.47532653808594,117.78057098388672,131.55482482910156,117.76695251464844,111.91329956054688,109.32321166992188
24,53,117,137,65,61,94,25,34.0,78.0,216.0,208.0,71.0,28.0,24.0,24.0,-16.703636169433594,42.245819091796875,20.03263282775879,-1.9684464931488037,-23.579744338989258,-43.99235534667969,31.044300079345703,-3.0068843364715576,-48.81359100341797,-55.62268829345703,-48.85432815551758,-31.851146697998047,138.5572509765625,114.55769348144531,131.71499633789062,117.98429870605469,112.13391876220703,109.6336669921875
27,61,134,158,68,46,74,22,32.0,88.0,240.0,205.0,66.0,26.0,23.0,21.0,-16.754961013793945,39.461612701416016,19.970094680786133,-1.9957356452941895,-23.601036071777344,-44.07130432128906,30.98674964904785,-4.274917125701904,-48.88433074951172,-55.671905517578125,-48.90372085571289,-31.913448333740234,138.61431884765625,112.83440399169922,131.85614013671875,118.13577270507812,112.30760192871094,109.81788635253906
31,56,132,154,64,45,72,24,34.0,94.0,241.0,252.0,79.0,29.0,22.0,22.0,-16.884870529174805,36.25700759887695,19.867246627807617,-2.0902562141418457,-23.68964958190918,-44.19549560546875,30.932376861572266,-5.358674049377441,-48.93593215942383,-55.75094223022461,-48.98772048950195,-32.002750396728516,138.66046142578125,111.2149429321289,132.02890014648438,118.36103057861328,112.53382873535156,110.0168228149414
30,70,137,158,62,50,83,25,33.0,90.0,217.0,219.0,79.0,30.0,22.0,22.0,-17.195905685424805,30.238718032836914,19.655691146850586,-2.3154561519622803,-23.90074920654297,-44.471981048583984,30.81593894958496,-6.495641708374023,-49.0285758972168,-55.93169403076172,-49.197021484375,-32.24584197998047,138.68072509765625,108.76797485351562,132.33079528808594,118.74495697021484,112.89657592773438,110.33003234863281
33,85,208,173,62,50,89,27,35.0,113.0,173.0,203.0,73.0,29.0,21.0,24.0,-17.451759338378906,25.99969482421875,19.483051300048828,-2.472998857498169,-24.07941246032715,-44.644832611083984,30.710290908813477,-6.760033130645752,-49.110801696777344,-56.06419372558594,-49.36516571044922,-32.43667984008789,138.71063232421875,107.248779296875,132.54290771484375,118.98505401611328,113.1268539428711,110.52484130859375
31,81,201,145,67,50,73,28,34.0,110.0,179.0,207.0,72.0,30.0,20.0,20.0,-17.69367218017578,23.109201431274414,19.325212478637695,-2.624349594116211,-24.240222930908203,-44.788818359375,30.610509872436523,-6.697447299957275,-49.17982482910156,-56.179508209228516,-49.50651168823242,-32.601959228515625,138.77662658691406,106.34508514404297,132.73362731933594,119.19556427001953,113.31884002685547,110.68909454345703
32,81,195,116,60,44,70,29,35.0,109.0,173.0,219.0,90.0,33.0,21.0,20.0,-17.84482192993164,21.975967407226562,19.242286682128906,-2.703660488128662,-24.317848205566406,-44.86647033691406,30.55499267578125,-6.60013484954834,-49.20620346069336,-56.232452392578125,-49.57376480102539,-32.68479537963867,138.84454345703125,106.09564208984375,132.8448028564453,119.30963134765625,113.41429138183594,110.76808166503906
32,85,200,132,67,47,75,28,37.0,120.0,179.0,149.0,82.0,33.0,21.0,20.0,-18.207666397094727,19.370729446411133,19.013347625732422,-2.9132750034332275,-24.53264808654785,-45.07102584838867,30.422340393066406,-6.184204578399658,-49.28089904785156,-56.35234069824219,-49.72506332397461,-32.86919021606445,138.9853973388672,105.55580139160156,133.07066345214844,119.52306365966797,113.59088897705078,110.91242218017578
33,89,223,142,64,40,65,29,36.0,117.0,180.0,138.0,76.0,30.0,22.0,19.0,-18.532066345214844,16.976085662841797,18.819433212280273,-3.081204652786255,-24.711612701416016,-45.24424743652344,30.31660270690918,-5.629975318908691,-49.327186584472656,-56.42919921875,-49.83294677734375,-33.00538635253906,139.14990234375,105.0818862915039,133.2605438232422,119.69116973876953,113.73190307617188,111.03057098388672
33,77,177,123,64,41,61,28,35.0,95.0,183.0,129.0,77.0,31.0,22.0,18.0,-18.783979415893555,15.299295425415039,18.6545467376709,-3.2336604595184326,-24.872211456298828,-45.3880729675293,30.224803924560547,-5.157693862915039,-49.37742614746094,-56.49415969848633,-49.91295623779297,-33.098358154296875,139.31082153320312,104.8223648071289,133.4068603515625,119.81883239746094,113.83868408203125,111.12163543701172
34,84,177,127,57,40,61,29,32.0,94.0,195.0,130.0,82.0,33.0,23.0,18.0,-18.987104415893555,12.781996726989746,18.50089454650879,-3.715451717376709,-25.362924575805664,-46.01417922973633,30.174026489257812,-4.805378437042236,-49.489723205566406,-56.84761428833008,-50.13568878173828,-33.295982360839844,138.39813232421875,102.90011596679688,132.27088928222656,119.46507263183594,113.52877044677734,111.07074737548828
31,80,172,140,58,44,59,29,29.0,97.0,174.0,103.0,70.0,32.0,22.0,19.0,-19.142995834350586,11.500779151916504,18.33885955810547,-3.9094254970550537,-25.568429946899414,-46.271846771240234,30.135019302368164,-4.554647922515869,-49.733482360839844,-56.99299240112305,-50.17338943481445,-33.31174850463867,138.23492431640625,102.29094696044922,132.392578125,119.36580657958984,113.37920379638672,111.04998779296875
37,78,182,131,53,48,55,29,26.0,82.0,167.0,111.0,64.0,29.0,21.0,19.0,-19.41899871826172,10.663622856140137,18.090221405029297,-4.088308811187744,-25.731891632080078,-46.42902755737305,30.09500503540039,-4.065366744995117,-49.76641082763672,-56.9216423034668,-50.070762634277344,-33.159034729003906,138.7527618408203,102.54827117919922,132.48069763183594,119.2981948852539,113.33891296386719,111.02900695800781
36,59,152,108,54,54,52,28,26.0,80.0,173.0,124.0,75.0,30.0,21.0,18.0,-19.674558639526367,9.537137985229492,17.821258544921875,-4.2619500160217285,-25.860931396484375,-46.54033660888672,30.074302673339844,-3.4200148582458496,-49.785804748535156,-56.8635368347168,-49.97896194458008,-33.05440139770508,139.21153259277344,102.8182373046875,132.66220092773438,119.34564971923828,113.34268188476562,111.04733276367188
36,65,138,110,52,51,46,28,27.0,87.0,163.0,118.0,78.0,29.0,20.0,17.0,-19.823780059814453,8.774598121643066,17.69515037536621,-4.347054481506348,-25.9257869720459,-46.60026168823242,30.063627243041992,-3.0006000995635986,-49.784873962402344,-56.841957092285156,-49.94346618652344,-33.020816802978516,139.4118194580078,102.89925384521484,132.7586669921875,119.38877868652344,113.3434066772461,111.05056762695312
36,61,130,118,58,49,42,26,31.0,93.0,136.0,108.0,75.0,25.0,17.0,16.0,-19.927366256713867,8.097967147827148,17.592235565185547,-4.424242973327637,-25.988754272460938,-46.64672088623047,30.055397033691406,-2.644619941711426,-49.79599380493164,-56.8406982421875,-49.946651458740234,-33.02000045776367,139.55340576171875,102.9446792602539,132.85357666015625,119.44760131835938,113.3954849243164,111.09954071044922
37,64,129,98,61,55,59,25,31.0,87.0,140.0,111.0,67.0,25.0,19.0,18.0,-20.084096908569336,7.299693584442139,17.46742820739746,-4.5136284828186035,-26.0686092376709,-46.727500915527344,30.06151580810547,-2.1385669708251953,-49.78024673461914,-56.834754943847656,-49.96894073486328,-33.039302825927734,139.71600341796875,102.9892578125,132.9834442138672,119.55512237548828,113.50984954833984,111.18923950195312
31,61,126,92,61,54,64,25,30.0,87.0,167.0,112.0,66.0,25.0,20.0,19.0,-20.233415603637695,6.7195892333984375,17.381786346435547,-4.56769323348999,-26.116044998168945,-46.775794982910156,30.057466506958008,-1.6826657056808472,-49.75889205932617,-56.84980010986328,-49.9988899230957,-33.06875991821289,139.87106323242188,103.05632019042969,133.1114501953125,119.68962097167969,113.61689758300781,111.2623062133789
30,70,128,102,62,50,64,25,31.0,93.0,158.0,95.0,57.0,26.0,19.0,20.0,-20.26932716369629,6.589615345001221,17.363727569580078,-4.579554080963135,-26.12125587463379,-46.786170959472656,30.052274703979492,-1.5704609155654907,-49.75886154174805,-56.8619384765625,-50.0126953125,-33.08480453491211,139.91046142578125,103.08293914794922,133.1516876220703,119.73280334472656,113.64701843261719,111.28467559814453
29,69,139,102,67,54,67,26,40.0,105.0,155.0,88.0,49.0,28.0,20.0,25.0,-20.336711883544922,6.352463722229004,17.335580825805664,-4.599916934967041,-26.139144897460938,-46.80758285522461,30.03141212463379,-1.2865774631500244,-49.781349182128906,-56.909767150878906,-50.07615661621094,-33.144229888916016,140.0115509033203,103.16647338867188,133.29415893554688,119.86216735839844,113.76757049560547,111.3706283569336
27,62,140,108,58,59,82,28,38.0,120.0,177.0,139.0,55.0,29.0,20.0,27.0,-20.164257049560547,5.6793622970581055,17.474241256713867,-4.9037580490112305,-26.395612716674805,-47.1358528137207,30.118545532226562,-1.8721518516540527,-49.97019958496094,-57.4902458190918,-50.63273620605469,-33.713050842285156,137.1230926513672,100.36278533935547,131.9020233154297,119.06085968017578,112.95394897460938,110.49352264404297
28,55,138,131,56,59,78,28,39.0,116.0,177.0,140.0,54.0,27.0,19.0,27.0,-19.65127944946289,5.02516508102417,17.695514678955078,-5.137524127960205,-26.42082977294922,-47.09711837768555,30.077579498291016,-2.2144479751586914,-50.8110237121582,-58.89075469970703,-51.49867630004883,-34.32084274291992,133.1769256591797,96.03724670410156,130.37966918945312,118.71381378173828,111.4391098022461,108.69799041748047
22,73,127,137,59,59,72,28,38.0,111.0,135.0,130.0,51.0,28.0,18.0,25.0,-19.84371566772461,15.165382385253906,17.752164840698242,-4.365379333496094,-25.524131774902344,-45.94794464111328,29.030126571655273,-3.690779685974121,-52.20015335083008,-59.979854583740234,-52.6084098815918,-35.12821578979492,135.25196838378906,101.11126708984375,132.28634643554688,119.21031951904297,111.94869995117188,108.66718292236328
29,70,132,140,66,57,72,28,42.0,118.0,138.0,132.0,50.0,26.0,18.0,26.0,-19.78534698486328,18.253999710083008,17.77992820739746,-4.210766315460205,-25.34151268005371,-45.77145767211914,29.044769287109375,-3.8487930297851562,-52.16779327392578,-59.7357063293457,-52.298160552978516,-34.83388137817383,136.51914978027344,103.22924041748047,132.7268524169922,119.31633758544922,112.06620025634766,109.04817962646484
30,64,110,137,63,54,74,28,46.0,149.0,164.0,170.0,59.0,23.0,19.0,23.0,-19.7408390045166,22.7164306640625,17.839834213256836,-3.978978395462036,-25.07295799255371,-45.57977294921875,29.15706443786621,-4.042626857757568,-52.023536682128906,-59.37689208984375,-51.88669967651367,-34.462772369384766,137.98468017578125,105.98194885253906,133.5207977294922,119.67061614990234,112.37020111083984,109.54924774169922
31,65,102,123,61,56,64,27,53.0,157.0,166.0,142.0,57.0,24.0,20.0,22.0,-19.61257553100586,30.331039428710938,18.081300735473633,-3.630516529083252,-24.755943298339844,-45.3743896484375,29.44828224182129,-3.706986427307129,-51.680335998535156,-58.988094329833984,-51.5600700378418,-34.2052116394043,138.89642333984375,109.50371551513672,134.44686889648438,120.21698760986328,112.82592010498047,110.00853729248047
30,74,97,99,60,50,59,28,59.0,231.0,193.0,142.0,61.0,27.0,20.0,22.0,-19.659082412719727,35.569984436035156,18.26886749267578,-3.4395387172698975,-24.541505813598633,-45.26032638549805,29.622949600219727,-2.59570574760437,-51.371360778808594,-58.739253997802734,-51.374732971191406,-34.116455078125,139.33303833007812,112.18846893310547,134.87216186523438,120.47174835205078,113.0207748413086,110.2116928100586
31,68,98,120,62,50,68,27,61.0,254.0,237.0,154.0,64.0,28.0,23.0,24.0,-19.718896865844727,40.309993743896484,18.400798797607422,-3.3219761848449707,-24.35399055480957,-45.167476654052734,29.762659072875977,-1.0286002159118652,-51.10909652709961,-58.522987365722656,-51.21829605102539,-34.041046142578125,139.689208984375,114.99467468261719,135.20904541015625,120.65241241455078,113.173583984375,110.35250854492188
36,73,172,155,56,50,67,28,69.0,287.0,253.0,157.0,64.0,28.0,24.0,23.0,-19.87053680419922,45.46986389160156,18.485666275024414,-3.2300808429718018,-24.21489906311035,-45.01975631713867,29.937515258789062,1.4114112854003906,-50.74864196777344,-58.2225341796875,-51.03647994995117,-33.92596435546875,140.17283630371094,119.19038391113281,135.6598663330078,120.89025115966797,113.4045639038086,110.4798583984375
35,77,183,160,55,50,64,26,62.0,273.0,248.0,143.0,56.0,30.0,22.0,22.0,-19.969043731689453,47.83149337768555,18.462688446044922,-3.2435789108276367,-24.21600341796875,-44.973876953125,30.02507781982422,2.773566961288452,-50.57369613647461,-58.05873107910156,-50.962608337402344,-33.87428283691406,140.4080047607422,121.70735168457031,135.90565490722656,120.99781799316406,113.54315185546875,110.54971313476562
36,84,191,160,64,48,64,29,59.0,268.0,246.0,158.0,57.0,29.0,21.0,21.0,-20.047475814819336,49.61236572265625,18.41025161743164,-3.30519962310791,-24.26639175415039,-44.99817657470703,30.09256362915039,3.940676212310791,-50.43626403808594,-57.93922805786133,-50.911251068115234,-33.85026931762695,140.57095336914062,123.90764617919922,136.05674743652344,121.06204986572266,113.64872741699219,110.62367248535156
38,86,201,161,65,52,66,27,55.0,214.0,234.0,158.0,60.0,31.0,23.0,21.0,-20.09969139099121,51.2924919128418,18.356767654418945,-3.3833696842193604,-24.352535247802734,-45.08454513549805,30.14784049987793,5.167355060577393,-50.329471588134766,-57.849754333496094,-50.87098693847656,-33.84294891357422,140.68470764160156,125.999267578125,136.15545654296875,121.09552764892578,113.70994567871094,110.69284057617188
39,85,203,151,62,52,66,26,56.0,208.0,235.0,181.0,60.0,31.0,21.0,21.0,-20.13652801513672,53.08210372924805,18.262922286987305,-3.5119993686676025,-24.499221801757812,-45.23120880126953,30.211456298828125,6.598861217498779,-50.21433639526367,-57.73566818237305,-50.82633972167969,-33.81937789916992,140.7911834716797,128.40090942382812,136.19708251953125,121.06938934326172,113.75468444824219,110.73551177978516
32,81,153,120,58,54,71,26,42.0,169.0,222.0,186.0,62.0,31.0,20.0,21.0,-20.157129287719727,54.00998306274414,18.19432830810547,-3.5907912254333496,-24.60155487060547,-45.32360076904297,30.24524688720703,7.407941818237305,-50.149925231933594,-57.660621643066406,-50.7961540222168,-33.80982208251953,140.83786010742188,129.71661376953125,136.1912384033203,121.01947021484375,113.75752258300781,110.75381469726562
37,91,176,122,59,54,72,27,43.0,188.0,226.0,171.0,60.0,31.0,20.0,20.0,-20.183025360107422,54.740970611572266,18.13296127319336,-3.6687111854553223,-24.69957733154297,-45.42691421508789,30.27340316772461,8.098342895507812,-50.087005615234375,-57.60480880737305,-50.776824951171875,-33.81660461425781,140.8710174560547,130.75660705566406,136.16993713378906,120.98625183105469,113.75703430175781,110.78527069091797
36,83,175,140,57,52,70,23,43.0,193.0,205.0,161.0,60.0,34.0,22.0,20.0,-20.233049392700195,55.600345611572266,18.04098892211914,-3.805297374725342,-24.85901641845703,-45.576778411865234,30.310100555419922,8.98681354522705,-50.009521484375,-57.53157043457031,-50.75887680053711,-33.8371467590332,140.9080352783203,132.07449340820312,136.1615753173828,120.92760467529297,113.76431274414062,110.83988952636719
36,78,170,147,59,53,71,23,43.0,190.0,199.0,166.0,57.0,33.0,20.0,20.0,-20.279401779174805,56.0472297668457,17.977439880371094,-3.9030869007110596,-24.970632553100586,-45.70863723754883,30.3315372467041,9.51833438873291,-49.957977294921875,-57.493247985839844,-50.75386047363281,-33.847808837890625,140.92922973632812,132.92874145507812,136.1472930908203,120.91133117675781,113.7821273803711,110.85545349121094
33,72,188,137,64,61,71,26,40.0,205.0,150.0,152.0,53.0,32.0,19.0,19.0,-20.333768844604492,56.48143768310547,17.913881301879883,-3.998985767364502,-25.09889793395996,-45.84720993041992,30.354692459106445,10.077610969543457,-49.916202545166016,-57.44343948364258,-50.7422981262207,-33.84617233276367,140.94076538085938,133.76315307617188,136.17214965820312,120.87643432617188,113.78726959228516,110.84430694580078
31,73,180,125,63,59,66,24,41.0,201.0,153.0,152.0,53.0,32.0,19.0,21.0,-20.411434173583984,56.93857192993164,17.809049606323242,-4.128999710083008,-25.267772674560547,-46.040252685546875,30.382400512695312,10.680253028869629,-49.86192321777344,-57.40247344970703,-50.72191619873047,-33.83870315551758,140.947021484375,134.69137573242188,136.18081665039062,120.88629913330078,113.78449249267578,110.82267761230469
30,62,193,144,70,62,64,24,39.0,186.0,138.0,149.0,56.0,31.0,20.0,23.0,-20.441003799438477,57.22618865966797,17.744359970092773,-4.203779220581055,-25.37232208251953,-46.14979553222656,30.399635314941406,11.053462028503418,-49.8336067199707,-57.37302017211914,-50.70960998535156,-33.81940460205078,140.94003295898438,135.2772674560547,136.15835571289062,120.867919921875,113.77942657470703,110.78182220458984
34,70,195,133,68,63,63,25,37.0,175.0,144.0,138.0,53.0,27.0,18.0,23.0,-20.46905517578125,57.54353332519531,17.675350189208984,-4.276601314544678,-25.486677169799805,-46.25752258300781,30.418071746826172,11.478950500488281,-49.80837631225586,-57.338619232177734,-50.69181823730469,-33.79179000854492,140.93019104003906,135.89414978027344,136.1428985595703,120.84307861328125,113.76094055175781,110.73238372802734
39,69,213,124,62,60,63,26,43.0,220.0,140.0,132.0,54.0,24.0,19.0,27.0,-20.50821876525879,57.989959716796875,17.570852279663086,-4.3874969482421875,-25.632247924804688,-46.41355514526367,30.437009811401367,12.105792045593262,-49.778446197509766,-57.27852249145508,-50.65827560424805,-33.76994705200195,140.9132080078125,136.69810485839844,136.10792541503906,120.76428985595703,113.71259307861328,110.68301391601562
40,72,214,141,54,50,57,25,43.0,196.0,134.0,113.0,60.0,25.0,23.0,28.0,-20.5252628326416,58.16483688354492,17.500207901000977,-4.4474101066589355,-25.716590881347656,-46.50375747680664,30.44337272644043,12.344478607177734,-49.75707244873047,-57.22209548950195,-50.63471221923828,-33.75299835205078,140.9011688232422,136.9999237060547,136.03988647460938,120.66065216064453,113.66876983642578,110.64189910888672
43,88,217,134,54,52,75,28,42.0,193.0,127.0,114.0,61.0,24.0,24.0,27.0,-20.57282829284668,58.2607421875,17.399538040161133,-4.533030986785889,-25.829471588134766,-46.631500244140625,30.447917938232422,12.529409408569336,-49.72881317138672,-57.183197021484375,-50.62353515625,-33.750736236572266,140.8932647705078,137.19581604003906,135.9733123779297,120.6120376586914,113.66790771484375,110.63726806640625
42,87,186,129,49,48,89,29,42.0,186.0,134.0,123.0,70.0,24.0,24.0,27.0,-20.642271041870117,58.30060577392578,17.270294189453125,-4.661742687225342,-26.024513244628906,-46.82331085205078,30.46100616455078,12.666193962097168,-49.694332122802734,-57.12324523925781,-50.623172760009766,-33.73847579956055,140.87677001953125,137.27964782714844,135.92196655273438,120.54956817626953,113.70740509033203,110.63839721679688
38,84,186,128,45,50,97,29,39.0,181.0,133.0,137.0,71.0,27.0,24.0,26.0,-20.6547794342041,58.309669494628906,17.23676300048828,-4.692691326141357,-26.075803756713867,-46.875892639160156,30.46451187133789,12.689740180969238,-49.68596649169922,-57.10926818847656,-50.61265563964844,-33.73580551147461,140.86904907226562,137.28053283691406,135.90109252929688,120.53429412841797,113.69264221191406,110.63780975341797
30,82,162,132,52,49,95,29,35.0,132.0,165.0,146.0,70.0,28.0,23.0,21.0,-20.68042755126953,58.3309440612793,17.145660400390625,-4.768510341644287,-26.22515106201172,-47.02421188354492,30.46991539001465,12.730297088623047,-49.65647888183594,-57.08311080932617,-50.600189208984375,-33.73040008544922,140.8386993408203,137.2445526123047,135.79214477539062,120.49939727783203,113.6630630493164,110.62773895263672
32,79,152,130,58,50,96,30,33.0,122.0,181.0,159.0,72.0,27.0,22.0,21.0,-20.67315673828125,58.3384895324707,17.06769371032715,-4.865214824676514,-26.372692108154297,-47.151268005371094,30.469266891479492,12.688824653625488,-49.647525787353516,-57.09824752807617,-50.58531951904297,-33.714962005615234,140.7872314453125,137.12554931640625,135.68849182128906,120.51737213134766,113.6253890991211,110.60447692871094
