Channel_1,Channel_2,Channel_3,Channel_4,Channel_5,Channel_6,Channel_7,Channel_8,Channel_9,Channel_10,Channel_11,Channel_12,Channel_13,Channel_14,Channel_15,Channel_16,Palm_tip_x,Thumb_tip_x,Index_tip_x,Middle_tip_x,Ring_tip_x,Pinky_tip_x,Palm_tip_y,Thumb_tip_y,Index_tip_y,Middle_tip_y,Ring_tip_y,Pinky_tip_y,Palm_tip_z,Thumb_tip_z,Index_tip_z,Middle_tip_z,Ring_tip_z,Pinky_tip_z
26,40,133,96,39,53,72,31,28,115,93,76,48,31,23,24,-18.180192947387695,32.508033752441406,28.386703491210938,9.34802532196045,-12.603860855102539,-34.303157806396484,30.557247161865234,-2.168248414993286,-47.88898849487305,-58.11241912841797,-56.00969314575195,-40.72585678100586,144.15585327148438,116.99925994873047,131.463623046875,118.00971984863281,115.59166717529297,115.14513397216797
25,35,123,82,33,62,73,31,26,114,89,84,49,29,24,23,-18.524646759033203,31.355375289916992,27.745941162109375,8.576336860656738,-13.461559295654297,-35.07012939453125,30.235544204711914,-2.677163600921631,-48.26974868774414,-58.42734146118164,-56.37575149536133,-41.00740051269531,144.2130889892578,115.98225402832031,131.18856811523438,117.84484100341797,115.71076202392578,115.33423614501953
25,34,116,80,36,57,73,31,24,118,88,83,45,25,23,24,-18.727863311767578,30.230754852294922,27.362966537475586,8.090520858764648,-14.02397346496582,-35.57524108886719,29.974733352661133,-3.021845579147339,-48.498985290527344,-58.633872985839844,-56.634185791015625,-41.20492935180664,144.2433624267578,114.8750228881836,130.8214569091797,117.62476348876953,115.69635009765625,115.36487579345703
25,31,95,73,35,55,69,29,26,117,70,80,52,24,20,21,-18.867685317993164,29.19894790649414,27.037694931030273,7.6498188972473145,-14.555642127990723,-36.04032516479492,29.7100830078125,-3.340536594390869,-48.71384811401367,-58.79941177368164,-56.8514518737793,-41.342464447021484,144.22755432128906,113.62506866455078,130.32901000976562,117.24991607666016,115.52981567382812,115.22003936767578
25,29,83,81,41,56,66,29,30,115,72,91,61,28,20,22,-18.989334106445312,28.232040405273438,26.710046768188477,7.170250415802002,-15.140087127685547,-36.580448150634766,29.367815017700195,-3.741612434387207,-48.97303009033203,-59.00045394897461,-57.13808822631836,-41.56495666503906,144.14767456054688,112.19943237304688,129.6010284423828,116.6767349243164,115.2572250366211,115.05098724365234
25,31,77,96,49,53,58,27,30,129,76,88,62,34,18,20,-19.171401977539062,27.008798599243164,26.373191833496094,6.568369388580322,-15.885520935058594,-37.35500717163086,28.745132446289062,-4.221073150634766,-49.40929412841797,-59.435821533203125,-57.623382568359375,-42.03693389892578,143.872314453125,109.74372100830078,128.32220458984375,115.7074203491211,114.59825897216797,114.61255645751953
25,29,82,107,50,39,48,26,35,144,82,74,59,34,18,21,-19.242259979248047,26.36846351623535,26.303028106689453,6.330222129821777,-16.208017349243164,-37.71712875366211,28.368398666381836,-4.297632217407227,-49.63233184814453,-59.67252731323242,-57.911827087402344,-42.29631423950195,143.68177795410156,107.76171112060547,127.52919006347656,115.0801010131836,114.15802764892578,114.20452880859375
25,34,79,106,50,44,42,27,37,153,83,71,59,34,19,21,-19.27495574951172,26.26095962524414,26.334115982055664,6.214956760406494,-16.40614128112793,-37.95242691040039,28.064233779907227,-4.289520263671875,-49.77861022949219,-59.839271545410156,-58.12871170043945,-42.45775604248047,143.47177124023438,106.2769546508789,126.84607696533203,114.50765991210938,113.70886993408203,113.68209075927734
26,36,80,111,53,47,45,26,39,156,103,79,57,34,19,22,-19.254859924316406,27.23678970336914,26.47650909423828,6.189407825469971,-16.523313522338867,-38.15157699584961,27.661592483520508,-4.143398761749268,-49.98231887817383,-60.08970642089844,-58.389156341552734,-42.68959045410156,142.9881591796875,104.5417251586914,125.79100036621094,113.59713745117188,112.8460922241211,112.7817611694336
25,43,120,121,54,48,49,25,37,146,112,86,57,38,19,23,-19.141698837280273,28.7974853515625,26.657039642333984,6.252140522003174,-16.516963958740234,-38.2215690612793,27.496299743652344,-3.7300286293029785,-50.02989196777344,-60.173583984375,-58.484413146972656,-42.776119232177734,142.4933319091797,103.61980438232422,124.88866424560547,112.8028793334961,112.11346435546875,112.07215881347656
26,44,139,113,51,53,52,27,37,142,115,93,57,33,20,23,-18.894676208496094,30.829381942749023,27.06781768798828,6.340808391571045,-16.39801597595215,-38.15674591064453,27.336917877197266,-2.995042085647583,-50.038753509521484,-60.29751205444336,-58.52397918701172,-42.83180236816406,141.76271057128906,102.64302062988281,123.56510925292969,111.65055847167969,110.93385314941406,111.03463745117188
26,49,145,105,49,51,49,28,35,136,117,99,61,37,21,27,-18.612789154052734,34.60779571533203,27.712257385253906,6.4361748695373535,-16.288103103637695,-38.01975631713867,27.235504150390625,-1.2982686758041382,-50.155303955078125,-60.509029388427734,-58.562469482421875,-42.867088317871094,140.69989013671875,101.92095184326172,122.2378921508789,110.25035858154297,109.35165405273438,109.615234375
28,52,191,136,53,50,53,26,37,132,141,104,60,37,23,28,-18.55031394958496,35.970794677734375,27.860754013061523,6.433012962341309,-16.25806427001953,-37.98289108276367,27.19820213317871,-0.6402544379234314,-50.27866744995117,-60.636837005615234,-58.574337005615234,-42.876930236816406,140.46701049804688,101.98037719726562,122.07718658447266,109.9997787475586,108.93839263916016,109.2327880859375
27,61,224,138,52,51,50,26,35,142,139,96,57,37,23,28,-18.40513038635254,39.89598846435547,28.388124465942383,6.467857837677002,-16.061349868774414,-37.530296325683594,26.952465057373047,1.4273055791854858,-50.629798889160156,-61.394771575927734,-58.720577239990234,-42.8161735534668,139.69676208496094,102.41828155517578,121.41179656982422,109.55037689208984,107.44902801513672,107.47779083251953
28,62,211,126,46,63,55,27,36,143,140,94,57,35,27,27,-18.328258514404297,44.060211181640625,28.42289924621582,6.329492092132568,-16.29324722290039,-37.61341857910156,26.7434024810791,3.5603344440460205,-51.33673095703125,-61.974143981933594,-59.083309173583984,-42.94820785522461,139.59375,104.17127227783203,122.00717163085938,109.6717300415039,107.33778381347656,107.03097534179688
29,64,211,125,46,61,51,27,37,130,136,90,61,37,28,27,-18.301668167114258,45.16825485229492,28.423992156982422,6.2904510498046875,-16.350378036499023,-37.692020416259766,26.651046752929688,4.098455429077148,-51.503910064697266,-62.11574935913086,-59.17137908935547,-43.00043869018555,139.62303161621094,104.79792022705078,122.07142639160156,109.65338134765625,107.26419067382812,106.92559814453125
30,61,214,126,48,63,56,28,35,143,129,88,57,32,27,24,-18.26531219482422,48.05728530883789,28.31084632873535,6.090761184692383,-16.591144561767578,-37.95793151855469,26.310033798217773,5.273377895355225,-51.95120620727539,-62.55441665649414,-59.43441390991211,-43.1076545715332,139.93011474609375,107.25731658935547,122.25851440429688,109.74703216552734,107.12750244140625,106.6062240600586
28,58,178,93,43,61,52,26,34,137,139,83,56,31,25,22,-18.293636322021484,50.62910461425781,27.915586471557617,5.858949661254883,-16.867990493774414,-38.30397415161133,26.00589942932129,5.767595291137695,-52.56947708129883,-62.908355712890625,-59.64333724975586,-43.20140075683594,140.49974060058594,111.1551513671875,123.26386260986328,110.24372863769531,107.289794921875,106.54642486572266
31,51,152,82,42,61,54,25,35,119,129,108,67,32,26,22,-18.306568145751953,51.31529998779297,27.753538131713867,5.756738662719727,-16.960514068603516,-38.38029861450195,25.943504333496094,5.769852638244629,-52.7518424987793,-63.04066848754883,-59.70515060424805,-43.212852478027344,140.65562438964844,112.5550537109375,123.6512680053711,110.52178955078125,107.41651916503906,106.56633758544922
29,48,157,77,41,47,47,27,37,121,117,111,54,26,22,21,-18.45375633239746,52.91753005981445,27.096153259277344,5.2876434326171875,-17.337045669555664,-38.71360778808594,25.704790115356445,5.436047554016113,-53.379150390625,-63.52713394165039,-59.94715118408203,-43.32597732543945,141.2211151123047,117.50230407714844,124.96516418457031,111.52423858642578,107.93358612060547,106.7765121459961
28,48,142,77,37,46,52,24,34,126,114,112,53,23,22,22,-18.687490463256836,53.485591888427734,26.27977180480957,4.601743698120117,-17.919206619262695,-39.095706939697266,25.47688865661621,4.4593505859375,-53.99001693725586,-64.04020690917969,-60.22344970703125,-43.379390716552734,141.8716583251953,122.25477600097656,126.28758239746094,112.63138580322266,108.64546966552734,107.08902740478516
26,49,131,70,38,52,58,25,35,100,123,109,56,23,23,20,-18.786819458007812,53.396270751953125,25.991825103759766,4.3660664558410645,-18.121362686157227,-39.231895446777344,25.414363861083984,3.9698328971862793,-54.17814636230469,-64.18783569335938,-60.308685302734375,-43.39356231689453,142.09031677246094,123.76024627685547,126.74823760986328,113.00890350341797,108.91803741455078,107.22032928466797
25,49,126,75,36,50,65,28,32,99,81,111,59,26,24,20,-19.16715431213379,52.186058044433594,25.00765609741211,3.47930908203125,-18.959699630737305,-39.843502044677734,25.24178123474121,1.9932739734649658,-54.690189361572266,-64.66031646728516,-60.63702392578125,-43.509830474853516,142.7862548828125,128.16481018066406,128.14590454101562,114.31389617919922,110.02729034423828,107.91739654541016
24,48,115,96,35,49,69,31,32,92,79,91,55,29,24,20,-19.452682495117188,50.632164001464844,24.240798950195312,2.8148555755615234,-19.66106414794922,-40.376243591308594,25.13883399963379,0.27213263511657715,-55.01466369628906,-64.90079498291016,-60.86021423339844,-43.58838653564453,143.3507080078125,131.05735778808594,129.14195251464844,115.21436309814453,110.94239044189453,108.58079528808594
24,44,97,96,37,49,70,30,30,79,84,79,61,30,24,20,-19.756153106689453,48.5441780090332,23.49489974975586,2.169525146484375,-20.35394287109375,-40.968326568603516,25.078330993652344,-1.5868083238601685,-55.243465423583984,-65.0788803100586,-61.02593994140625,-43.678810119628906,143.8574676513672,133.54229736328125,130.00489807128906,116.07542419433594,111.83763885498047,109.32429504394531
23,37,103,107,37,50,70,31,32,70,83,75,60,29,24,19,-20.15376853942871,44.674049377441406,22.593570709228516,1.4221121072769165,-21.133806228637695,-41.760780334472656,25.047182083129883,-4.332760334014893,-55.51887893676758,-65.22996520996094,-61.145076751708984,-43.83892822265625,144.4055633544922,135.77084350585938,131.06903076171875,117.08197021484375,112.88678741455078,110.40130615234375
23,37,93,109,39,45,66,31,32,61,80,78,58,30,24,20,-20.430801391601562,41.69491958618164,22.026653289794922,0.9762453436851501,-21.540454864501953,-42.227760314941406,25.07172203063965,-6.044531345367432,-55.699684143066406,-65.29690551757812,-61.12763214111328,-43.926273345947266,144.7021942138672,136.21109008789062,131.81045532226562,117.72591400146484,113.45708465576172,111.1176986694336
25,35,98,106,40,51,66,29,34,51,74,77,57,30,22,22,-20.705455780029297,36.84584045410156,21.358196258544922,0.5052284598350525,-21.93084716796875,-42.74324417114258,25.088071823120117,-8.492349624633789,-55.97157287597656,-65.3525390625,-61.05815124511719,-44.027523040771484,145.0172576904297,135.0162353515625,132.6362762451172,118.38518524169922,114.03974914550781,111.98494720458984
23,38,105,85,41,57,70,29,34,48,81,84,53,31,23,23,-20.836732864379883,33.125755310058594,21.041746139526367,0.2751011252403259,-22.090679168701172,-42.91986846923828,25.085662841796875,-10.069366455078125,-56.1064567565918,-65.39232635498047,-61.02394104003906,-44.04886245727539,145.1618194580078,133.0349578857422,132.96273803710938,118.70144653320312,114.3383560180664,112.39885711669922
24,41,129,88,43,59,72,28,32,54,78,75,49,32,22,22,-20.9490909576416,28.329980850219727,20.80388832092285,0.05859252065420151,-22.206335067749023,-43.063629150390625,25.074079513549805,-11.556422233581543,-56.212650299072266,-65.45099639892578,-60.99855422973633,-44.07459259033203,145.28260803222656,129.6823272705078,133.16921997070312,118.99890899658203,114.62329864501953,112.79113006591797
25,41,131,81,47,59,70,27,29,54,78,76,49,35,21,23,-21.05381202697754,21.91817855834961,20.583112716674805,-0.08163043856620789,-22.357379913330078,-43.20236587524414,25.072322845458984,-12.734453201293945,-56.30019760131836,-65.45064544677734,-61.01261520385742,-44.09174728393555,145.4290771484375,124.92788696289062,133.3815155029297,119.29501342773438,115.04572296142578,113.24767303466797
24,39,136,80,45,57,69,24,28,54,69,73,48,35,20,22,-21.105270385742188,18.241971969604492,20.4925537109375,-0.1083378866314888,-22.39761734008789,-43.29846954345703,25.068910598754883,-12.93815803527832,-56.33462142944336,-65.41700744628906,-61.00027847290039,-44.1239128112793,145.513916015625,122.11813354492188,133.4723663330078,119.40926361083984,115.24195098876953,113.53389739990234
25,41,143,81,46,53,64,25,26,57,77,73,50,34,20,22,-21.142492294311523,15.425060272216797,20.474172592163086,-0.08668676763772964,-22.37851905822754,-43.35273742675781,25.074785232543945,-12.899362564086914,-56.319374084472656,-65.36150360107422,-60.94784164428711,-44.142417907714844,145.5812530517578,119.92872619628906,133.5009002685547,119.4654312133789,115.34199523925781,113.7551498413086
24,35,134,88,47,45,62,24,25,64,86,70,50,32,20,22,-21.159881591796875,12.157363891601562,20.51535987854004,0.05488591268658638,-22.265771865844727,-43.23319625854492,25.0864315032959,-12.503702163696289,-56.281856536865234,-65.21475219726562,-60.827980041503906,-44.02161407470703,145.629150390625,117.21817779541016,133.48678588867188,119.3971176147461,115.3108901977539,113.7071533203125
25,41,130,82,47,45,58,24,25,64,86,88,51,30,21,22,-21.155967712402344,11.165761947631836,20.569629669189453,0.20437468588352203,-22.133092880249023,-43.09163284301758,25.089710235595703,-12.30640983581543,-56.25477981567383,-65.08757019042969,-60.71168899536133,-43.889869689941406,145.63294982910156,116.12743377685547,133.45571899414062,119.26679229736328,115.16741943359375,113.48612213134766
25,41,136,76,43,46,60,25,26,76,96,90,48,32,25,23,-21.106517791748047,8.798245429992676,20.817941665649414,0.12395849078893661,-22.092269897460938,-43.277435302734375,24.925743103027344,-12.3138427734375,-56.319129943847656,-65.39388275146484,-60.92734909057617,-44.33144760131836,145.13299560546875,113.58626556396484,132.78945922851562,119.27605438232422,115.3782730102539,114.12606811523438
26,41,140,79,42,47,56,24,25,79,110,91,50,30,25,22,-20.737537384033203,8.326030731201172,21.35262107849121,0.4871288239955902,-21.67642593383789,-42.830081939697266,24.700925827026367,-12.551078796386719,-56.49665069580078,-65.65251922607422,-61.06867218017578,-44.39578628540039,144.74490356445312,112.15460205078125,132.4149932861328,119.23311614990234,115.33343505859375,113.9227066040039
24,40,134,82,40,45,57,22,28,80,116,94,55,33,29,20,-20.605411529541016,8.308146476745605,21.55169105529785,0.6393013000488281,-21.538999557495117,-42.68967819213867,24.672733306884766,-12.497742652893066,-56.498252868652344,-65.6714859008789,-61.09012985229492,-44.3990364074707,144.64559936523438,111.62017822265625,132.3126983642578,119.19837951660156,115.33329772949219,113.89225769042969
23,41,137,88,39,46,48,23,27,76,110,105,53,33,27,21,-18.687585830688477,16.328861236572266,25.210655212402344,8.868621826171875,-14.466163635253906,-37.685638427734375,12.998974800109863,-22.613693237304688,-53.671504974365234,-63.05146026611328,-66.80274200439453,-53.16325759887695,142.15489196777344,107.31278228759766,120.73705291748047,109.99288940429688,109.70378875732422,108.48689270019531
25,41,139,85,36,44,46,22,28,82,117,97,49,33,27,22,-17.599220275878906,16.45657730102539,24.70094108581543,9.537351608276367,-11.478941917419434,-33.801231384277344,8.291694641113281,-28.456954956054688,-52.06216049194336,-60.18141174316406,-61.57428741455078,-48.84939956665039,139.19088745117188,101.11911010742188,111.8270492553711,103.16127014160156,102.23358917236328,102.85354614257812
24,44,130,91,33,40,48,22,36,84,116,96,48,30,26,22,-17.578222274780273,17.739219665527344,24.822376251220703,9.576570510864258,-11.35716724395752,-33.3731575012207,8.269641876220703,-28.16851806640625,-52.05208206176758,-60.21259307861328,-61.163169860839844,-48.2086067199707,139.1502227783203,100.67076873779297,111.88067626953125,103.03595733642578,101.80850219726562,102.45589447021484
23,47,131,91,32,42,51,23,42,102,102,97,48,30,25,21,-17.459293365478516,26.29691505432129,25.293092727661133,9.72437572479248,-11.286608695983887,-33.010440826416016,8.739609718322754,-26.024307250976562,-51.85023880004883,-60.21378707885742,-60.597415924072266,-47.5589599609375,139.0643768310547,101.07797241210938,112.21141052246094,103.14500427246094,101.66546630859375,102.3757553100586
27,48,143,102,37,52,58,29,42,112,110,92,39,29,22,22,-17.19403076171875,36.45149230957031,26.48426628112793,9.870673179626465,-11.267985343933105,-32.61210632324219,10.033238410949707,-22.035076141357422,-51.69565963745117,-60.552093505859375,-59.71706771850586,-46.4066276550293,139.24774169921875,103.62329864501953,113.17311096191406,103.85332489013672,101.89852905273438,102.64702606201172
27,51,169,93,37,52,61,26,42,114,128,75,36,27,22,21,-17.118799209594727,41.65822219848633,27.271852493286133,9.847151756286621,-11.697141647338867,-32.580013275146484,10.9512300491333,-19.012311935424805,-52.04817199707031,-60.738922119140625,-59.636192321777344,-45.7330207824707,139.5163116455078,105.48292541503906,114.28156280517578,104.53012084960938,102.5347900390625,102.96937561035156
24,46,164,93,37,53,68,29,43,117,125,70,45,29,24,20,-17.119911193847656,46.81897735595703,27.802459716796875,9.610145568847656,-12.103841781616211,-32.936767578125,12.12247371673584,-14.848692893981934,-52.11516189575195,-60.869239807128906,-59.17566680908203,-45.0952262878418,139.98486328125,107.6195068359375,115.48784637451172,105.51732635498047,103.3237075805664,103.69218444824219
26,49,194,110,42,53,65,32,40,114,127,87,47,30,23,20,-17.21176528930664,51.32097244262695,27.981159210205078,9.21996784210205,-12.693354606628418,-33.41340255737305,13.320981979370117,-10.496959686279297,-52.15764236450195,-60.81036376953125,-58.91171646118164,-44.445499420166016,140.58436584472656,110.09503936767578,116.92868041992188,106.76097106933594,104.53690338134766,104.63508605957031
28,50,199,112,44,54,66,32,35,96,128,84,46,29,23,20,-17.495126724243164,54.13176727294922,27.691600799560547,8.410040855407715,-13.669053077697754,-34.33924865722656,15.217462539672852,-6.646999359130859,-52.112361907958984,-60.50366973876953,-58.29014587402344,-43.41603469848633,141.90235900878906,113.2696762084961,119.8250503540039,109.27027130126953,106.92142486572266,106.53314971923828
24,49,194,104,40,47,59,29,36,104,115,81,47,27,22,21,-18.095273971557617,56.309478759765625,27.025924682617188,7.55518102645874,-14.681883811950684,-35.3768310546875,17.93885612487793,-2.9736433029174805,-51.63775634765625,-59.80760955810547,-57.372806549072266,-42.010196685791016,144.4662322998047,119.87381744384766,125.2625503540039,113.61746215820312,110.78892517089844,109.44918823242188
26,46,177,108,41,53,59,29,43,111,89,77,48,27,21,20,-18.095273971557617,56.309478759765625,27.025924682617188,7.55518102645874,-14.681883811950684,-35.3768310546875,17.93885612487793,-2.9736433029174805,-51.63775634765625,-59.80760955810547,-57.372806549072266,-42.010196685791016,144.4662322998047,119.87381744384766,125.2625503540039,113.61746215820312,110.78892517089844,109.44918823242188
28,48,183,109,42,55,53,27,47,112,112,88,51,25,20,20,-18.2678165435791,56.980220794677734,26.806642532348633,7.341366767883301,-15.0125150680542,-35.70069885253906,18.691232681274414,-2.010958194732666,-51.6884765625,-59.77226638793945,-57.372798919677734,-41.77588653564453,145.57550048828125,122.84581756591797,127.17473602294922,115.04367065429688,112.08573913574219,110.37556457519531
26,46,156,91,40,61,61,25,47,116,116,75,56,27,22,20,-18.467531204223633,57.54759216308594,26.501205444335938,7.184365749359131,-15.210197448730469,-35.84480667114258,19.365129470825195,-1.5851657390594482,-51.717838287353516,-59.712276458740234,-57.126644134521484,-41.38041305541992,147.59884643554688,127.78180694580078,129.9453582763672,117.12942504882812,113.66073608398438,111.5954360961914
29,45,152,84,41,59,73,29,52,129,114,78,59,28,22,21,-18.568798065185547,57.69978332519531,26.409814834594727,7.103362560272217,-15.281570434570312,-35.98711395263672,19.523828506469727,-1.4326492547988892,-51.796443939208984,-59.862640380859375,-57.17182540893555,-41.54180145263672,148.09934997558594,129.49465942382812,130.69903564453125,117.739990234375,114.11185455322266,112.0479965209961
30,49,159,85,43,60,71,28,50,116,109,81,60,28,22,21,-18.95427894592285,57.57548522949219,26.03057861328125,6.7886176109313965,-15.608748435974121,-36.311370849609375,19.898807525634766,-1.3959324359893799,-52.166561126708984,-60.26231002807617,-57.456783294677734,-41.82179641723633,149.56886291503906,134.38694763183594,132.76931762695312,119.34564208984375,115.40642547607422,113.242431640625
31,49,149,94,42,57,74,31,46,108,103,89,60,29,22,22,-19.462928771972656,56.363380432128906,25.495098114013672,6.3059282302856445,-16.138742446899414,-36.825687408447266,20.30936622619629,-1.8708642721176147,-52.452850341796875,-60.615760803222656,-57.77248001098633,-42.20490264892578,150.73648071289062,138.77284240722656,134.5215301513672,120.83019256591797,116.71034240722656,114.58963775634766
30,47,137,92,42,61,79,31,41,97,77,77,56,31,22,22,-19.6282901763916,55.59464645385742,25.276342391967773,6.093869686126709,-16.38116455078125,-36.996891021728516,20.48501968383789,-2.287511110305786,-52.52191925048828,-60.739139556884766,-57.92044448852539,-42.221336364746094,151.1243438720703,140.2478485107422,135.1448974609375,121.40420532226562,117.2649154663086,115.03673553466797
31,43,135,90,41,58,76,31,37,84,59,71,50,30,19,20,-20.040287017822266,53.070987701416016,24.636404037475586,5.461510181427002,-16.971988677978516,-37.55155944824219,20.842437744140625,-3.7090165615081787,-52.85395050048828,-61.12209701538086,-58.07318115234375,-42.41870880126953,152.1373291015625,143.90142822265625,136.7008819580078,122.82726287841797,118.50022888183594,116.26651000976562
28,44,124,97,38,57,68,26,30,67,81,72,45,34,19,21,-20.43678092956543,50.03963088989258,23.931379318237305,4.740434646606445,-17.675247192382812,-38.20216751098633,21.38498306274414,-5.077958106994629,-53.02454376220703,-61.26689529418945,-58.078636169433594,-42.43192672729492,152.79930114746094,146.7331085205078,137.9524688720703,124.03218078613281,119.65469360351562,117.45137023925781
27,39,119,94,34,54,72,29,30,60,86,77,48,33,20,21,-20.555137634277344,48.98759460449219,23.712007522583008,4.510339260101318,-17.899106979370117,-38.41706085205078,21.53448486328125,-5.579599857330322,-53.09076690673828,-61.327484130859375,-58.0936279296875,-42.46310043334961,152.95753479003906,147.41470336914062,138.2660675048828,124.34927368164062,119.96935272216797,117.79695129394531
25,43,117,89,39,53,74,28,28,59,95,79,49,32,21,20,-20.8206787109375,44.8095588684082,23.2314453125,3.9964115619659424,-18.414091110229492,-38.913841247558594,21.83629035949707,-7.781793117523193,-53.31988525390625,-61.520259857177734,-58.27714920043945,-42.62809753417969,153.29083251953125,148.22610473632812,138.89022827148438,124.98652648925781,120.70147705078125,118.61569213867188
27,44,108,93,37,49,69,26,26,58,91,86,53,34,21,19,-20.966047286987305,41.51216125488281,22.966402053833008,3.718137264251709,-18.709747314453125,-39.19858932495117,21.996213912963867,-9.470450401306152,-53.47102355957031,-61.62681579589844,-58.446495056152344,-42.7154426574707,153.42149353027344,147.5851593017578,139.14532470703125,125.28459167480469,121.11634063720703,119.05364227294922
26,47,112,90,38,49,79,29,28,58,92,91,57,35,20,22,-21.0753116607666,37.91719055175781,22.72534942626953,3.477041244506836,-18.97886085510254,-39.46942901611328,22.141862869262695,-11.236003875732422,-53.648597717285156,-61.80696487426758,-58.550270080566406,-42.798126220703125,153.49436950683594,145.8885498046875,139.32752990722656,125.55314636230469,121.44927215576172,119.4548110961914
26,45,117,89,39,52,79,31,25,55,72,86,59,34,21,23,-21.261323928833008,32.262123107910156,22.383193969726562,3.092580556869507,-19.410282135009766,-39.94697952270508,22.387643814086914,-13.409067153930664,-53.89347839355469,-62.10628890991211,-58.67285919189453,-42.85563659667969,153.5704345703125,141.96737670898438,139.47911071777344,125.93402099609375,121.94609832763672,120.07837677001953
26,43,100,84,38,54,74,28,27,48,72,79,54,35,21,22,-21.348535537719727,27.335290908813477,22.1988468170166,2.8770718574523926,-19.648008346557617,-40.24074935913086,22.563745498657227,-14.662101745605469,-54.10512161254883,-62.2811393737793,-58.76639938354492,-42.853511810302734,153.6167449951172,138.10415649414062,139.62289428710938,126.15442657470703,122.27838897705078,120.46711730957031
28,41,112,78,38,56,71,29,27,44,64,70,59,37,24,23,-21.395795822143555,23.02949333190918,22.07599449157715,2.7555959224700928,-19.812244415283203,-40.45547866821289,22.70926856994629,-15.225763320922852,-54.30387878417969,-62.42930603027344,-58.831478118896484,-42.88071060180664,153.65975952148438,134.80006408691406,139.77389526367188,126.3438491821289,122.53375244140625,120.79719543457031
27,42,112,70,39,63,86,30,28,58,61,63,54,35,25,24,-21.43006134033203,18.196388244628906,22.013883590698242,2.653343915939331,-19.952146530151367,-40.664794921875,22.911636352539062,-15.330530166625977,-54.395015716552734,-62.53057861328125,-58.87852096557617,-42.88005065917969,153.70114135742188,130.8008575439453,139.86984252929688,126.52796173095703,122.82140350341797,121.16758728027344
29,44,118,73,41,60,78,28,27,65,95,57,50,33,25,22,-21.442237854003906,15.976653099060059,22.03577995300293,2.6605477333068848,-19.970001220703125,-40.730926513671875,22.98995018005371,-15.11919116973877,-54.403953552246094,-62.5852165222168,-58.919532775878906,-42.895931243896484,153.7307891845703,128.60946655273438,139.83474731445312,126.56275939941406,122.91828918457031,121.30937194824219
28,43,116,72,42,63,77,26,28,68,102,67,50,32,25,20,-21.427356719970703,14.257997512817383,22.107437133789062,2.705082654953003,-19.947742462158203,-40.75277328491211,23.068267822265625,-14.81770133972168,-54.3696174621582,-62.63079833984375,-58.956966400146484,-42.91415023803711,153.73880004882812,126.69309997558594,139.7425079345703,126.5600814819336,122.98096466064453,121.41868591308594
29,45,124,74,47,65,76,28,29,76,115,70,52,33,26,22,-21.352834701538086,12.796464920043945,22.264619827270508,2.808525323867798,-19.870893478393555,-40.741973876953125,23.220447540283203,-14.405076026916504,-54.278175354003906,-62.58968734741211,-58.91619110107422,-42.90434265136719,153.67147827148438,124.8242416381836,139.5772705078125,126.49503326416016,123.01921844482422,121.54057312011719
27,43,126,75,47,64,77,26,30,82,115,67,48,35,24,20,-21.124204635620117,11.031386375427246,22.642620086669922,3.06453013420105,-19.6563777923584,-40.63180923461914,23.555191040039062,-13.649066925048828,-54.104576110839844,-62.49612808227539,-58.81898880004883,-42.850364685058594,153.3892822265625,122.01504516601562,139.2793731689453,126.35382843017578,123.05034637451172,121.6916275024414
26,44,125,79,48,57,58,24,35,77,134,70,51,40,22,20,-20.923419952392578,10.240240097045898,22.951814651489258,3.29707407951355,-19.4484920501709,-40.499244689941406,23.735637664794922,-13.219796180725098,-54.086212158203125,-62.48439025878906,-58.76865768432617,-42.85847854614258,153.1341552734375,120.26383972167969,139.0947723388672,126.20987701416016,122.987060546875,121.7086410522461
23,43,108,73,45,64,61,27,34,74,118,72,51,40,25,21,-20.74530792236328,9.69682502746582,23.243818283081055,3.526034116744995,-19.240537643432617,-40.36135482788086,23.86400032043457,-12.78427791595459,-54.19008255004883,-62.4350471496582,-58.75595474243164,-42.899192810058594,152.90374755859375,118.35179901123047,139.05853271484375,126.03827667236328,122.90896606445312,121.6968002319336
26,43,125,81,46,61,58,28,36,77,115,66,53,39,24,21,-20.52566146850586,9.180511474609375,23.655086517333984,3.8357269763946533,-18.954748153686523,-40.19630432128906,23.914100646972656,-12.080120086669922,-54.312191009521484,-62.44459533691406,-58.82696533203125,-43.04730224609375,152.7313232421875,115.37544250488281,138.97781372070312,125.83905029296875,122.79251098632812,121.63822174072266
28,43,118,80,44,63,69,29,36,72,101,63,53,39,24,21,-20.367155075073242,9.395468711853027,23.993196487426758,4.0860443115234375,-18.724367141723633,-40.05030059814453,23.896116256713867,-11.79555606842041,-54.36151123046875,-62.47788619995117,-58.921730041503906,-43.19485092163086,152.58261108398438,114.14569091796875,138.81495666503906,125.64618682861328,122.65673065185547,121.55015563964844
29,42,102,74,38,62,68,29,35,67,117,80,61,37,24,22,-20.07901954650879,9.837098121643066,24.51338005065918,4.472744464874268,-18.375734329223633,-39.825164794921875,23.868743896484375,-11.66497802734375,-54.34408950805664,-62.53527069091797,-59.08183670043945,-43.44371032714844,152.17970275878906,112.92118072509766,138.3324737548828,125.28302001953125,122.4445571899414,121.42488098144531
32,40,103,75,41,62,69,31,30,65,103,90,60,33,27,21,-19.535268783569336,11.269829750061035,25.49239730834961,5.193414211273193,-17.725603103637695,-39.359474182128906,23.810962677001953,-11.70466423034668,-54.38324737548828,-62.7108154296875,-59.43314743041992,-43.93745422363281,151.14505004882812,110.97601318359375,137.39181518554688,124.52034759521484,121.9983901977539,121.0839614868164
32,45,113,81,42,55,62,30,34,76,100,87,61,35,25,24,-19.14256477355957,12.955408096313477,26.414566040039062,5.897241592407227,-17.030527114868164,-38.8055534362793,23.745677947998047,-11.701353073120117,-54.38380432128906,-62.96858215332031,-59.731666564941406,-44.38124084472656,149.94679260253906,109.51659393310547,136.4641876220703,123.72727966308594,121.29214477539062,120.46910095214844
31,47,96,75,38,60,83,31,33,72,102,83,57,36,26,25,-18.8449649810791,16.084083557128906,27.408111572265625,6.467172622680664,-16.234703063964844,-38.08357620239258,23.7443904876709,-11.011062622070312,-54.41573715209961,-63.5319709777832,-59.90314865112305,-44.605186462402344,148.9032745361328,108.64187622070312,135.86007690429688,123.20064544677734,120.0927505493164,119.25943756103516
32,48,110,86,38,58,81,28,34,95,104,90,58,36,28,26,-18.363813400268555,22.329450607299805,28.48050880432129,6.827210426330566,-15.83158016204834,-37.70479202270508,24.13129997253418,-8.735234260559082,-54.902225494384766,-64.55733489990234,-60.462852478027344,-44.97218322753906,147.75001525878906,108.02094268798828,136.4248809814453,123.28394317626953,119.20166778564453,118.12162780761719
32,50,115,92,38,59,83,29,35,96,101,81,56,34,27,25,-18.178468704223633,26.323328018188477,28.67098045349121,6.924071788787842,-15.723470687866211,-37.67363739013672,24.34330940246582,-7.399685859680176,-55.37813186645508,-64.8536148071289,-60.67107391357422,-45.15670394897461,147.4567413330078,108.3211441040039,137.4253692626953,123.29633331298828,119.07352447509766,118.01520538330078
32,51,120,91,33,60,87,28,35,113,98,66,59,31,25,26,-18.038331985473633,30.232322692871094,28.749876022338867,6.878536701202393,-15.790392875671387,-37.668174743652344,24.501094818115234,-5.94829797744751,-55.700870513916016,-65.13545989990234,-60.950775146484375,-45.226776123046875,147.42025756835938,108.98517608642578,138.14273071289062,123.50543212890625,119.2822494506836,117.99818420410156
31,48,124,90,34,62,96,30,36,120,92,66,55,27,26,24,-17.9621639251709,35.96858215332031,28.829511642456055,6.750360488891602,-15.792730331420898,-37.73185729980469,24.630207061767578,-3.2864060401916504,-55.9155387878418,-65.63787078857422,-61.219818115234375,-45.34489822387695,147.65992736816406,110.28518676757812,138.6092529296875,123.9869384765625,119.44705963134766,118.0793685913086
31,47,131,90,37,61,93,29,37,127,86,70,58,27,25,25,-17.973182678222656,39.41147994995117,29.037994384765625,7.086517333984375,-15.595059394836426,-37.4970817565918,24.670528411865234,-1.2103232145309448,-55.7799186706543,-65.41837310791016,-61.2067756652832,-45.18635940551758,148.04881286621094,111.30683898925781,138.35360717773438,123.51017761230469,119.29232788085938,117.8006591796875
27,46,124,86,38,61,92,30,40,114,80,65,59,28,22,22,-17.985719680786133,42.024845123291016,29.34228515625,7.45119047164917,-15.295809745788574,-37.20905685424805,24.62630271911621,0.7131792306900024,-55.52418518066406,-65.14696502685547,-61.07127380371094,-44.95146179199219,148.73580932617188,112.45403289794922,137.87127685546875,122.99642181396484,119.02481842041016,117.49435424804688
27,47,123,80,37,58,88,29,40,116,61,66,52,26,23,23,-17.862537384033203,44.94441223144531,29.61321258544922,7.959493637084961,-14.754794120788574,-36.7567024230957,24.36342430114746,2.356412887573242,-55.53319549560547,-64.89080810546875,-60.79521942138672,-44.69595718383789,149.89891052246094,114.72479248046875,137.86660766601562,122.62257385253906,118.56124877929688,117.17021179199219
26,47,130,85,39,56,91,29,40,104,97,93,47,27,22,23,-17.835174560546875,46.9141960144043,29.47677993774414,8.089875221252441,-14.550885200500488,-36.551177978515625,24.175363540649414,2.9302620887756348,-55.7779541015625,-65.0223617553711,-60.85302734375,-44.75239944458008,150.3534393310547,116.75237274169922,138.43096923828125,122.98507690429688,118.68701171875,117.1859359741211
28,50,148,99,45,63,88,33,38,90,99,97,48,29,23,22,-17.76350975036621,48.76558303833008,29.18428611755371,8.076723098754883,-14.471208572387695,-36.361961364746094,24.028600692749023,3.2528326511383057,-56.0009651184082,-65.20516967773438,-60.960662841796875,-44.792945861816406,150.78282165527344,119.19780731201172,139.0239715576172,123.60321807861328,119.05821990966797,117.3126220703125
28,51,143,94,44,62,73,32,35,86,102,96,49,29,22,22,-17.77545928955078,50.73762893676758,28.604480743408203,7.922853946685791,-14.519021987915039,-36.12434768676758,23.876140594482422,3.0613250732421875,-56.041778564453125,-65.27226257324219,-61.10771942138672,-44.8368034362793,151.67588806152344,123.70161437988281,140.05860900878906,124.86235046386719,120.07312774658203,117.83596801757812
29,50,140,89,46,61,80,30,33,82,103,96,51,28,21,22,-17.800914764404297,51.154937744140625,28.423551559448242,7.8597025871276855,-14.57031536102295,-36.079673767089844,23.898691177368164,2.9141366481781006,-55.933143615722656,-65.20285034179688,-61.105751037597656,-44.80918502807617,151.92062377929688,125.19902801513672,140.3179473876953,125.2341079711914,120.4155502319336,118.03083801269531
30,51,137,88,50,64,81,34,35,77,110,96,53,32,19,23,-17.832304000854492,52.05948257446289,27.850875854492188,7.576244831085205,-14.806319236755371,-36.02772521972656,23.87010383605957,1.9843205213546753,-55.76896667480469,-65.17643737792969,-61.108741760253906,-44.753475189208984,152.8008270263672,130.24630737304688,141.24465942382812,126.48442077636719,121.42436981201172,118.69064331054688
30,48,131,85,48,63,73,35,33,73,80,98,52,36,22,24,-18.098073959350586,51.8630485534668,27.21988296508789,7.194028377532959,-15.202916145324707,-36.189292907714844,23.851421356201172,0.7406789064407349,-55.63916015625,-65.12698364257812,-61.1436882019043,-44.740211486816406,153.67462158203125,135.03009033203125,142.32484436035156,127.67707061767578,122.48407745361328,119.44871520996094
28,40,101,70,43,53,71,27,33,68,78,127,68,36,22,24,-18.191768646240234,51.595027923583984,26.976585388183594,7.041727542877197,-15.368868827819824,-36.28133773803711,23.835208892822266,0.2136562466621399,-55.66105270385742,-65.12942504882812,-61.17584991455078,-44.74440002441406,153.9934844970703,136.75990295410156,142.7737579345703,128.0814666748047,122.88008880615234,119.74630737304688
27,38,108,86,47,50,79,27,36,59,74,135,74,37,23,23,-18.506900787353516,49.594303131103516,26.33417320251465,6.615116119384766,-15.952582359313965,-36.74420928955078,23.79589080810547,-1.9535456895828247,-55.5003776550293,-64.9903564453125,-61.22795104980469,-44.839534759521484,154.81556701660156,142.16213989257812,143.5198211669922,128.95921325683594,123.91642761230469,120.77013397216797
26,38,121,97,45,57,71,29,34,62,74,135,71,37,25,23,-18.608314514160156,48.82994842529297,26.16094398498535,6.476673603057861,-16.12834358215332,-36.905555725097656,23.7922306060791,-2.5503385066986084,-55.473297119140625,-64.97005462646484,-61.24497985839844,-44.87339782714844,155.02975463867188,143.4457244873047,143.7436065673828,129.22459411621094,124.22348022460938,121.08671569824219
22,34,123,110,44,55,73,29,33,68,75,142,76,35,26,23,-18.75891876220703,47.13220977783203,25.86259651184082,6.194620132446289,-16.41071128845215,-37.18964767456055,23.801843643188477,-3.7362661361694336,-55.4276237487793,-64.97493743896484,-61.23039627075195,-44.91102981567383,155.35635375976562,145.46287536621094,144.05491638183594,129.68226623535156,124.66264343261719,121.62130737304688
23,42,123,107,47,55,76,27,32,69,70,132,78,32,26,24,-18.90544891357422,44.575416564941406,25.53623390197754,5.859769344329834,-16.69972801208496,-37.52278518676758,23.851539611816406,-5.307163238525391,-55.3995246887207,-64.9801025390625,-61.182254791259766,-44.93076705932617,155.6488800048828,147.1694793701172,144.36209106445312,130.1276092529297,125.08385467529297,122.1973648071289
24,45,120,106,47,54,72,28,30,72,79,108,65,33,25,24,-19.004756927490234,42.228275299072266,25.2952823638916,5.642460346221924,-16.873394012451172,-37.77033615112305,23.940458297729492,-6.598087787628174,-55.39934158325195,-64.94454193115234,-61.1070556640625,-44.93427658081055,155.7598876953125,147.4364013671875,144.6356658935547,130.38604736328125,125.3189926147461,122.59600067138672
23,45,112,98,42,57,68,28,28,69,79,96,63,33,25,24,-19.150909423828125,37.95542907714844,24.91986846923828,5.318564414978027,-17.108566284179688,-38.09355545043945,24.061824798583984,-8.846759796142578,-55.45348358154297,-64.91206359863281,-61.02448654174805,-44.94661331176758,155.8787384033203,146.190185546875,145.0646209716797,130.7136688232422,125.65912628173828,123.13703918457031
25,44,99,96,45,54,70,28,29,69,76,102,59,32,22,25,-19.253549575805664,34.552574157714844,24.692340850830078,5.121906280517578,-17.261581420898438,-38.30160903930664,24.114809036254883,-10.340985298156738,-55.494651794433594,-64.9050521850586,-60.99648666381836,-44.97615432739258,155.95579528808594,144.10499572753906,145.26719665527344,130.89320373535156,125.8691177368164,123.48838806152344
26,43,90,84,45,57,86,24,28,63,61,94,52,31,22,24,-19.33941078186035,30.331066131591797,24.517005920410156,4.976194381713867,-17.399555206298828,-38.471553802490234,24.16284942626953,-11.673133850097656,-55.517799377441406,-64.87737274169922,-60.98259735107422,-45.00440216064453,156.0137939453125,140.86312866210938,145.4058837890625,131.01454162597656,126.06040954589844,123.7949447631836
25,36,81,85,43,58,87,26,28,54,56,94,55,30,19,20,-19.38604164123535,24.51140022277832,24.361114501953125,4.869787216186523,-17.504226684570312,-38.655033111572266,24.263383865356445,-12.385674476623535,-55.5032958984375,-64.78626251220703,-60.91876220703125,-45.00391387939453,156.0446319580078,136.03880310058594,145.52273559570312,131.08724975585938,126.26726531982422,124.1539535522461
26,35,84,79,43,63,93,27,29,52,39,87,57,30,22,21,-19.396263122558594,21.984651565551758,24.317880630493164,4.885473251342773,-17.51657485961914,-38.7310791015625,24.33942985534668,-12.330036163330078,-55.45802688598633,-64.66839599609375,-60.85819625854492,-44.98763656616211,156.05307006835938,133.68417358398438,145.5692901611328,131.0732879638672,126.37805938720703,124.35160827636719
26,38,78,81,46,63,91,29,28,65,78,93,51,27,23,22,-19.390213012695312,19.91163444519043,24.339252471923828,4.982041358947754,-17.451026916503906,-38.764015197753906,24.42217445373535,-11.842666625976562,-55.38150405883789,-64.4856185913086,-60.745582580566406,-44.95292663574219,156.045166015625,131.6935272216797,145.57568359375,130.96774291992188,126.3895263671875,124.48956298828125
26,39,78,70,43,66,90,28,26,59,88,87,52,28,23,23,-19.369516372680664,16.722591400146484,24.483356475830078,5.231242656707764,-17.152572631835938,-38.6510009765625,24.526493072509766,-10.549164772033691,-55.22037124633789,-64.20045471191406,-60.45438003540039,-44.8167724609375,156.01026916503906,127.49012756347656,145.50567626953125,130.74612426757812,126.13722229003906,124.3949966430664
25,42,84,73,42,66,81,28,26,69,89,93,52,29,23,23,-19.349592208862305,16.255117416381836,24.544897079467773,5.312986850738525,-17.075674057006836,-38.600860595703125,24.55118751525879,-10.244564056396484,-55.17847442626953,-64.11837005615234,-60.393131256103516,-44.77312088012695,155.98886108398438,126.60556030273438,145.4777374267578,130.657958984375,126.07516479492188,124.33795928955078
24,40,89,76,42,66,81,27,27,77,95,89,48,30,26,23,-19.30218505859375,15.822609901428223,24.651172637939453,5.400191783905029,-17.005468368530273,-38.551963806152344,24.596559524536133,-9.96631145477295,-55.10757064819336,-64.04754638671875,-60.349491119384766,-44.74760818481445,155.9336700439453,125.7479476928711,145.419189453125,130.6047821044922,126.06354522705078,124.34011840820312
23,38,90,80,41,63,77,27,26,82,97,88,41,27,23,24,-18.958982467651367,15.27298355102539,25.149343490600586,5.736383438110352,-16.711238861083984,-38.37318420410156,24.71863555908203,-9.464292526245117,-54.92183303833008,-63.977691650390625,-60.34264373779297,-44.841670989990234,155.4757080078125,123.36021423339844,144.9652862548828,130.39208984375,126.03602600097656,124.47301483154297
24,41,113,73,40,61,76,26,30,74,71,83,44,32,23,23,-18.67806053161621,15.062302589416504,25.63847541809082,6.0688090324401855,-16.402923583984375,-38.16694259643555,24.755390167236328,-8.97977066040039,-54.77534866333008,-63.9378547668457,-60.35178756713867,-44.916439056396484,155.13490295410156,121.15485382080078,144.50466918945312,130.13278198242188,125.91212463378906,124.43257904052734
25,40,112,73,40,56,79,25,31,75,77,95,46,32,23,21,-18.458681106567383,15.208616256713867,26.065210342407227,6.372524738311768,-16.110082626342773,-37.944061279296875,24.7557373046875,-8.558303833007812,-54.671722412109375,-63.901119232177734,-60.344356536865234,-44.96364212036133,154.88600158691406,119.29500579833984,144.14346313476562,129.88430786132812,125.73551940917969,124.31452178955078
27,40,112,67,40,59,72,25,36,88,85,85,45,32,23,20,-18.07198715209961,15.712883949279785,26.772098541259766,6.85292911529541,-15.673473358154297,-37.60982131958008,24.723276138305664,-8.253669738769531,-54.53760528564453,-63.886451721191406,-60.39693069458008,-45.069114685058594,154.51327514648438,117.14698791503906,143.51168823242188,129.4849090576172,125.50576782226562,124.16136932373047
28,43,109,68,39,62,77,26,38,86,82,82,48,31,21,22,-17.939533233642578,15.938514709472656,27.01197624206543,7.0136494636535645,-15.5291748046875,-37.50430679321289,24.70621681213379,-8.228837013244629,-54.49994659423828,-63.89241409301758,-60.42073059082031,-45.12015914916992,154.39849853515625,116.62584686279297,143.30848693847656,129.3629608154297,125.4332275390625,124.13130187988281
28,50,108,64,38,60,74,26,43,84,81,113,54,34,24,21,-17.464303970336914,18.49120330810547,27.932851791381836,7.716238975524902,-14.885991096496582,-36.992610931396484,24.51625633239746,-8.204221725463867,-54.444976806640625,-63.97959899902344,-60.611324310302734,-45.40221405029297,153.78280639648438,115.07926940917969,142.30438232421875,128.61293029785156,124.88683319091797,123.70970153808594
24,47,96,66,37,65,81,28,41,83,81,112,55,29,25,24,-17.15396499633789,23.001850128173828,28.893888473510742,8.437434196472168,-14.136336326599121,-36.384788513183594,24.477251052856445,-7.459578037261963,-54.19203186035156,-63.93403244018555,-60.55949783325195,-45.52030944824219,153.0722198486328,114.56431579589844,141.21568298339844,127.6832275390625,123.89315032958984,122.93363189697266
24,49,107,82,37,64,72,31,45,91,80,102,58,34,24,24,-16.928752899169922,26.836511611938477,29.58342742919922,8.840086936950684,-13.652146339416504,-35.97642135620117,24.387502670288086,-6.66761589050293,-54.29331970214844,-64.1839370727539,-60.58009338378906,-45.59245300292969,152.70965576171875,114.4424057006836,140.79983520507812,127.28469848632812,123.13524627685547,122.31145477294922
26,52,120,91,40,66,72,32,44,82,75,105,62,35,25,24,-16.58108139038086,33.131195068359375,30.347333908081055,9.303918838500977,-12.96911334991455,-35.408084869384766,24.17582893371582,-4.908878803253174,-55.00191116333008,-64.87037658691406,-60.70996856689453,-45.757102966308594,152.38819885253906,114.8450698852539,141.19918823242188,127.10191345214844,122.17609405517578,121.47589111328125
26,53,147,101,44,65,74,33,44,81,84,106,64,34,26,24,-16.50799560546875,34.704017639160156,30.477022171020508,9.429288864135742,-12.81982707977295,-35.29946517944336,24.1446475982666,-4.419870376586914,-55.10013961791992,-64.95679473876953,-60.70693588256836,-45.79151153564453,152.32901000976562,115.08040618896484,141.20303344726562,127.02232360839844,121.9756851196289,121.34149932861328
25,48,146,110,44,71,75,33,43,91,93,75,62,34,24,23,-16.365873336791992,39.77758026123047,30.678173065185547,9.653407096862793,-12.645707130432129,-35.08027267456055,24.081562042236328,-2.7986743450164795,-55.3322868347168,-65.09700012207031,-60.81155014038086,-45.8342399597168,152.2615509033203,116.38923645019531,141.31259155273438,126.8675308227539,121.79777526855469,121.09138488769531
29,50,145,109,49,69,67,31,42,100,95,80,60,33,22,21,-16.277896881103516,43.691715240478516,30.986284255981445,9.94510555267334,-12.410828590393066,-34.83203887939453,23.96705436706543,-1.1316702365875244,-55.31459426879883,-65.05754852294922,-60.821937561035156,-45.830047607421875,152.4383087158203,117.74664306640625,141.08151245117188,126.55946350097656,121.60008239746094,120.86427307128906
31,56,148,111,48,65,66,29,36,103,84,85,55,28,23,23,-16.231204986572266,44.66717529296875,31.121376037597656,10.08359432220459,-12.28554630279541,-34.723541259765625,23.918701171875,-0.6518270373344421,-55.27559280395508,-65.00022888183594,-60.788692474365234,-45.80670166015625,152.55677795410156,118.16343688964844,140.95314025878906,126.41341400146484,121.49080657958984,120.77659606933594
31,56,145,102,43,60,69,30,41,103,90,80,48,26,21,22,-16.16213607788086,46.44682312011719,31.32539939880371,10.309589385986328,-12.090154647827148,-34.5228385925293,23.82915496826172,0.27108120918273926,-55.22092819213867,-64.91695404052734,-60.7466926574707,-45.76247787475586,152.78323364257812,118.99384307861328,140.79122924804688,126.2267074584961,121.36920166015625,120.63290405273438
29,57,120,95,42,56,59,28,40,105,85,77,41,27,21,22,-16.088626861572266,48.4630241394043,31.480693817138672,10.570028305053711,-11.849863052368164,-34.28113555908203,23.717493057250977,1.328279972076416,-55.193931579589844,-64.83790588378906,-60.69881820678711,-45.69580078125,153.17974853515625,120.29656982421875,140.8529815673828,126.20576477050781,121.35789489746094,120.55220794677734
30,57,124,87,40,47,58,26,41,95,104,72,38,24,20,21,-16.06234359741211,49.59666442871094,31.44781494140625,10.690659523010254,-11.715484619140625,-34.11628723144531,23.643457412719727,1.7842721939086914,-55.25233840942383,-64.82373809814453,-60.66729736328125,-45.61280822753906,153.62899780273438,121.63265228271484,141.2794189453125,126.48685455322266,121.5401840209961,120.59843444824219
29,54,122,90,36,43,57,27,47,95,105,65,38,28,23,22,-16.068843841552734,50.51155471801758,31.311166763305664,10.726472854614258,-11.664881706237793,-34.02900314331055,23.637510299682617,2.0877256393432617,-55.27812576293945,-64.81241607666016,-60.6435661315918,-45.53142547607422,154.01345825195312,123.0129165649414,141.7858123779297,126.90293884277344,121.84674072265625,120.73986053466797
27,50,130,71,38,47,63,27,49,91,125,64,37,27,22,20,-16.128564834594727,52.04439926147461,30.98896598815918,10.68688678741455,-11.660144805908203,-33.90960693359375,23.608694076538086,2.394170045852661,-55.31700134277344,-64.8858871459961,-60.71896743774414,-45.474342346191406,154.60211181640625,126.05371856689453,142.70579528808594,127.81800079345703,122.52051544189453,121.03977966308594
25,53,134,75,37,47,64,26,44,89,129,62,39,28,23,20,-16.193538665771484,53.277587890625,30.69037628173828,10.568245887756348,-11.708677291870117,-33.876251220703125,23.585739135742188,2.6402688026428223,-55.31477355957031,-64.95722198486328,-60.753509521484375,-45.415122985839844,155.0300750732422,128.9364471435547,143.2436065673828,128.46466064453125,122.95976257324219,121.22583770751953
27,51,132,69,36,51,70,27,47,100,145,72,45,33,22,19,-16.27412223815918,54.36815643310547,30.38467025756836,10.404862403869629,-11.811010360717773,-33.90836715698242,23.57369613647461,2.917325735092163,-55.36331558227539,-65.0138931274414,-60.773685455322266,-45.35841369628906,155.36318969726562,131.97445678710938,143.71731567382812,128.9748992919922,123.30082702636719,121.37710571289062
28,55,155,72,37,58,69,28,46,128,131,75,44,35,23,19,-16.397436141967773,55.99700164794922,29.885652542114258,10.109003067016602,-12.036972999572754,-34.08390808105469,23.695114135742188,3.5249762535095215,-55.31438446044922,-64.98915100097656,-60.74790573120117,-45.28297805786133,155.7704315185547,137.2666778564453,144.41871643066406,129.7649383544922,123.9193115234375,121.79071044921875
28,58,150,69,36,60,73,28,43,130,136,80,45,34,20,19,-16.55097198486328,57.66777038574219,29.44727325439453,9.822798728942871,-12.294305801391602,-34.30767059326172,23.825977325439453,4.767191410064697,-55.26881790161133,-64.9622573852539,-60.731937408447266,-45.269020080566406,156.0443572998047,143.3906707763672,145.03060913085938,130.4280548095703,124.45083618164062,122.22183227539062
28,55,135,72,37,57,73,29,42,128,122,81,50,35,22,18,-16.611614227294922,58.03483581542969,29.30371856689453,9.727231979370117,-12.389169692993164,-34.378116607666016,23.87669563293457,5.1533355712890625,-55.25242233276367,-64.95234680175781,-60.72322463989258,-45.25315475463867,156.13040161132812,145.36013793945312,145.24884033203125,130.65011596679688,124.63002014160156,122.35294342041016
28,50,139,86,40,53,65,28,44,125,116,87,51,33,22,21,-16.726709365844727,58.671356201171875,29.034542083740234,9.529091835021973,-12.584511756896973,-34.517093658447266,23.95648956298828,6.114640712738037,-55.24925231933594,-64.94493103027344,-60.70941925048828,-45.217864990234375,156.294677734375,149.4882049560547,145.6378173828125,131.01876831054688,124.9295425415039,122.58646392822266
28,48,140,95,42,49,60,28,40,117,102,81,47,32,23,22,-16.844459533691406,59.05694580078125,28.719867706298828,9.271796226501465,-12.833061218261719,-34.708805084228516,24.068647384643555,7.4518585205078125,-55.262699127197266,-64.91693115234375,-60.67012023925781,-45.15462875366211,156.44198608398438,155.38905334472656,146.06039428710938,131.365966796875,125.23839569091797,122.83638000488281
25,44,122,118,41,47,62,30,39,85,107,87,50,32,24,22,-16.90421485900879,58.98655319213867,28.536392211914062,9.104074478149414,-13.011110305786133,-34.8351936340332,24.133750915527344,8.027486801147461,-55.27864074707031,-64.91132354736328,-60.666175842285156,-45.12043762207031,156.51800537109375,158.37982177734375,146.2782440185547,131.55117797851562,125.42655181884766,122.99295043945312
26,43,124,119,40,42,58,29,37,93,123,94,51,33,27,23,-16.954994201660156,58.70638656616211,28.297075271606445,8.873537063598633,-13.23626708984375,-35.02193069458008,24.257888793945312,8.754631042480469,-55.288047790527344,-64.8863296508789,-60.625877380371094,-45.06737518310547,156.57582092285156,162.1710968017578,146.56822204589844,131.78477478027344,125.6759033203125,123.22817993164062
26,44,146,126,39,42,60,29,40,97,123,95,50,33,26,23,-16.985294342041016,58.531272888183594,28.160568237304688,8.747267723083496,-13.368873596191406,-35.142494201660156,24.35356903076172,9.258878707885742,-55.27656173706055,-64.84973907470703,-60.59543991088867,-45.03727722167969,156.610595703125,164.27792358398438,146.77676391601562,131.9407196044922,125.85713958740234,123.40972900390625
25,45,132,118,38,48,64,28,36,96,119,89,52,41,25,21,-16.998157501220703,58.41888427734375,28.061588287353516,8.65678882598877,-13.47357177734375,-35.232330322265625,24.437480926513672,9.753390312194824,-55.263126373291016,-64.81265258789062,-60.5734748840332,-45.00727844238281,156.63104248046875,166.052734375,146.9456329345703,132.06439208984375,126.01472473144531,123.55717468261719
27,47,128,118,33,48,66,28,37,99,115,89,52,40,27,22,-16.99839973449707,58.417991638183594,27.981733322143555,8.58995246887207,-13.566256523132324,-35.30582046508789,24.526025772094727,10.5835542678833,-55.24018478393555,-64.75777435302734,-60.55078125,-44.96734619140625,156.64312744140625,168.08798217773438,147.09886169433594,132.16273498535156,126.17632293701172,123.69210052490234
27,47,122,93,34,49,70,28,38,114,125,83,50,40,25,22,-16.998594284057617,58.454063415527344,27.901409149169922,8.519782066345215,-13.675554275512695,-35.40177917480469,24.649656295776367,11.28757381439209,-55.1933708190918,-64.68598175048828,-60.52517318725586,-44.923011779785156,156.6558837890625,169.60545349121094,147.30718994140625,132.3089599609375,126.41410827636719,123.89435577392578
27,49,128,96,35,51,71,30,40,114,101,73,49,38,23,22,-16.99273681640625,58.5414924621582,27.875978469848633,8.49183464050293,-13.731325149536133,-35.45787811279297,24.735815048217773,11.829134941101074,-55.144927978515625,-64.62551879882812,-60.504154205322266,-44.89621353149414,156.6612548828125,170.48794555664062,147.42457580566406,132.39089965820312,126.56840515136719,124.03594207763672
28,63,108,92,33,53,72,30,39,113,99,68,50,44,23,22,-16.985618591308594,58.7484130859375,27.873062133789062,8.503742218017578,-13.773975372314453,-35.50381088256836,24.811800003051758,12.68941593170166,-55.09199905395508,-64.5455322265625,-60.48536682128906,-44.871734619140625,156.66314697265625,171.62451171875,147.5009765625,132.40992736816406,126.69190979003906,124.1541748046875
33,63,126,97,34,59,76,31,39,123,97,73,44,38,23,21,-16.96887969970703,59.02119064331055,27.883255004882812,8.49880313873291,-13.827500343322754,-35.58116912841797,24.907201766967773,13.612432479858398,-55.02431869506836,-64.4605941772461,-60.46211624145508,-44.846763610839844,156.65576171875,172.69772338867188,147.56399536132812,132.44833374023438,126.8267822265625,124.29225158691406
31,63,136,89,35,61,75,30,43,120,116,66,42,37,24,19,-16.95816993713379,59.2015495300293,27.89657211303711,8.507060050964355,-13.850388526916504,-35.62049102783203,24.95321273803711,14.12443733215332,-54.99394989013672,-64.39942932128906,-60.451236724853516,-44.837459564208984,156.64801025390625,173.2379608154297,147.5900421142578,132.42208862304688,126.8856430053711,124.35980987548828
33,65,133,95,36,55,68,30,42,118,107,74,40,34,25,20,-16.952009201049805,59.472965240478516,27.916521072387695,8.530670166015625,-13.857739448547363,-35.6478271484375,24.98178482055664,14.90526008605957,-54.971221923828125,-64.34001159667969,-60.44393539428711,-44.832611083984375,156.64373779296875,174.0454864501953,147.59779357910156,132.36936950683594,126.90951538085938,124.39411926269531
33,62,144,92,38,57,71,28,41,104,117,72,42,35,27,23,-16.937353134155273,59.68214797973633,27.94688606262207,8.589022636413574,-13.871472358703613,-35.68547439575195,25.018720626831055,15.376487731933594,-54.94240951538086,-64.24302673339844,-60.44145965576172,-44.825233459472656,156.62718200683594,174.4852752685547,147.59912109375,132.27127075195312,126.9544906616211,124.41887664794922
34,50,166,118,38,57,73,26,44,108,123,69,41,27,26,23,-16.92527198791504,59.79233169555664,27.98253631591797,8.62401294708252,-13.880581855773926,-35.702308654785156,25.042705535888672,15.595460891723633,-54.915225982666016,-64.186767578125,-60.44379425048828,-44.818031311035156,156.61378479003906,174.69589233398438,147.5825958251953,132.21484375,126.98698425292969,124.43373107910156
30,49,156,120,38,58,74,27,43,122,128,69,47,30,27,22,-16.917034149169922,59.88357925415039,28.010560989379883,8.651314735412598,-13.874442100524902,-35.71194076538086,25.05581283569336,15.750711441040039,-54.90323257446289,-64.14788818359375,-60.443031311035156,-44.81348419189453,156.60623168945312,174.8317108154297,147.57920837402344,132.16549682617188,126.99366760253906,124.43070220947266
31,54,163,116,40,55,73,28,40,128,124,72,51,31,26,26,-16.910558700561523,60.0679817199707,28.054956436157227,8.722115516662598,-13.865447044372559,-35.701473236083984,25.06371307373047,16.0555477142334,-54.8948860168457,-64.0648193359375,-60.451534271240234,-44.78786849975586,156.6021728515625,175.0946044921875,147.5768280029297,132.04205322265625,127.01258087158203,124.36312866210938
27,56,169,131,41,63,74,27,38,119,117,70,56,33,26,25,-16.906675338745117,60.195777893066406,28.090280532836914,8.75816535949707,-13.8538179397583,-35.69941329956055,25.065086364746094,16.264209747314453,-54.88520812988281,-64.02361297607422,-60.45518493652344,-44.78173828125,156.60182189941406,175.27853393554688,147.5614776611328,131.97288513183594,127.01448059082031,124.34069061279297
28,52,155,139,40,63,73,25,36,119,112,77,54,33,23,22,-16.90015411376953,60.30635452270508,28.12354850769043,8.798750877380371,-13.823187828063965,-35.70315933227539,25.066627502441406,16.43077278137207,-54.8802604675293,-63.9837760925293,-60.44279861450195,-44.779510498046875,156.600830078125,175.4031524658203,147.55494689941406,131.91024780273438,126.99443054199219,124.33370971679688
24,50,125,113,39,63,69,27,33,115,108,92,57,34,23,25,-16.89493751525879,60.43893051147461,28.164264678955078,8.868371963500977,-13.793439865112305,-35.691749572753906,25.06641960144043,16.586368560791016,-54.8878288269043,-63.90480041503906,-60.430877685546875,-44.76499938964844,156.6005859375,175.49411010742188,147.57009887695312,131.79324340820312,126.97377014160156,124.30302429199219
24,48,135,108,42,56,60,24,32,96,107,95,67,36,23,26,-16.893421173095703,60.50259780883789,28.189565658569336,8.899467468261719,-13.770893096923828,-35.688350677490234,25.065336227416992,16.645530700683594,-54.88701629638672,-63.872013092041016,-60.42246627807617,-44.76192092895508,156.60108947753906,175.5194091796875,147.56951904296875,131.7444305419922,126.955810546875,124.29483032226562
26,47,119,109,42,56,57,23,30,81,86,101,67,36,19,24,-16.89402961730957,60.564544677734375,28.212610244750977,8.916644096374512,-13.752299308776855,-35.687599182128906,25.062196731567383,16.68305778503418,-54.88861083984375,-63.84817886352539,-60.41477584838867,-44.760189056396484,156.6028289794922,175.51382446289062,147.57102966308594,131.70489501953125,126.94229125976562,124.29171752929688
26,43,108,102,45,59,60,24,31,74,79,98,71,39,20,24,-16.903995513916016,60.66371154785156,28.214160919189453,8.88960075378418,-13.742053985595703,-35.71043395996094,25.051481246948242,16.731101989746094,-54.90461349487305,-63.86737823486328,-60.40841293334961,-44.776145935058594,156.60964965820312,175.45864868164062,147.5897979736328,131.7339630126953,126.94098663330078,124.32833099365234
26,45,100,88,43,62,70,25,30,69,69,98,87,41,21,23,-16.972576141357422,60.84646987915039,28.113571166992188,8.760899543762207,-13.825687408447266,-35.83839797973633,24.991703033447266,16.528608322143555,-55.003997802734375,-63.940208435058594,-60.454063415527344,-44.85542297363281,156.65208435058594,174.9429168701172,147.69155883789062,131.82968139648438,127.01679229736328,124.4828872680664
27,46,102,86,48,60,64,25,32,63,59,91,86,40,21,21,-17.025991439819336,60.93757247924805,28.0194034576416,8.65408706665039,-13.91012954711914,-35.93587112426758,24.947429656982422,16.025142669677734,-55.0765380859375,-63.98587417602539,-60.49003219604492,-44.90044021606445,156.6787109375,174.05145263671875,147.73345947265625,131.86990356445312,127.07958984375,124.5790023803711
26,53,88,90,48,58,65,26,31,44,43,90,76,36,20,20,-17.111021041870117,60.89173889160156,27.838945388793945,8.482860565185547,-14.060073852539062,-36.092796325683594,24.877416610717773,14.921636581420898,-55.204830169677734,-64.05711364746094,-60.562286376953125,-44.97356414794922,156.7091522216797,172.2392578125,147.80577087402344,131.9152374267578,127.18376159667969,124.72441101074219
24,49,97,108,49,64,82,26,31,42,43,97,76,38,22,20,-17.252042770385742,60.41759490966797,27.506071090698242,8.13100814819336,-14.318410873413086,-36.35440444946289,24.73203468322754,12.240599632263184,-55.45363998413086,-64.25362396240234,-60.687034606933594,-45.099605560302734,156.7629852294922,167.67312622070312,147.8614501953125,132.0435333251953,127.35496520996094,124.98933410644531
26,46,91,93,47,57,85,25,31,45,48,93,79,40,21,20,-17.351276397705078,59.50448989868164,27.213720321655273,7.838815689086914,-14.498040199279785,-36.51192092895508,24.60542106628418,9.577378273010254,-55.69209289550781,-64.4212417602539,-60.76523971557617,-45.16181564331055,156.798583984375,163.5163116455078,147.93362426757812,132.14346313476562,127.47258758544922,125.15557098388672
24,43,97,97,50,53,75,26,32,56,48,85,64,39,26,22,-17.45103645324707,58.06769561767578,26.944761276245117,7.584308624267578,-14.638172149658203,-36.67660140991211,24.462244033813477,6.646209239959717,-55.911319732666016,-64.5638656616211,-60.802486419677734,-45.22732925415039,156.84567260742188,159.0262451171875,147.91751098632812,132.20169067382812,127.53546905517578,125.3387680053711
24,45,91,97,46,52,76,24,28,56,61,78,65,39,25,22,-17.656030654907227,55.343467712402344,26.479496002197266,7.141419410705566,-14.888702392578125,-36.950897216796875,24.17787742614746,2.665303945541382,-56.27914810180664,-64.84652709960938,-60.9035530090332,-45.32435607910156,156.9609375,152.9037322998047,147.80429077148438,132.3352813720703,127.69056701660156,125.63480377197266
26,42,113,91,43,61,95,26,29,59,62,81,67,40,26,22,-17.81211280822754,53.18891143798828,26.099456787109375,6.743281841278076,-15.189105033874512,-37.174903869628906,23.757347106933594,0.01973503641784191,-56.736202239990234,-65.27837371826172,-61.18238830566406,-45.478885650634766,157.10316467285156,149.055419921875,147.58035278320312,132.46849060058594,127.90611267089844,125.85382843017578
26,45,109,74,42,60,88,28,30,63,67,72,70,39,25,24,-17.88156509399414,51.92055130004883,25.923721313476562,6.555256366729736,-15.329992294311523,-37.27654266357422,23.49896240234375,-1.381734848022461,-56.99099349975586,-65.52976989746094,-61.33038330078125,-45.561893463134766,157.18096923828125,147.10498046875,147.38760375976562,132.5085906982422,127.95570373535156,125.91886901855469
25,46,111,77,40,57,82,27,30,62,63,72,59,31,26,23,-18.139991760253906,46.960628509521484,25.298282623291016,6.008398532867432,-15.63566780090332,-37.72845458984375,22.736970901489258,-5.810964107513428,-57.88729476928711,-66.21591186523438,-61.689125061035156,-45.8994026184082,157.1748809814453,141.25387573242188,146.9462890625,132.4249267578125,127.94953918457031,126.12776184082031
27,48,113,76,41,61,87,26,29,55,65,81,57,30,20,23,-18.264490127563477,43.23066711425781,25.08785629272461,5.9194536209106445,-15.688116073608398,-37.81532287597656,22.413156509399414,-8.371550559997559,-58.18386459350586,-66.3687973022461,-61.72122573852539,-45.86687088012695,157.17022705078125,137.8694305419922,146.6206817626953,132.2876434326172,127.81072235107422,125.96995544433594
29,47,122,85,43,61,86,28,29,56,64,99,56,30,20,24,-18.384971618652344,39.44955062866211,24.975557327270508,5.880940914154053,-15.749519348144531,-37.898597717285156,22.20371437072754,-10.364510536193848,-58.26560592651367,-66.43091583251953,-61.727996826171875,-45.820892333984375,157.14862060546875,134.73660278320312,146.22984313964844,132.154541015625,127.70832061767578,125.83270263671875
31,42,95,84,46,54,72,28,31,53,72,99,57,31,21,25,-18.51966667175293,32.725440979003906,24.886301040649414,5.874773025512695,-15.856033325195312,-38.015907287597656,22.10622787475586,-12.559979438781738,-58.19548797607422,-66.3622817993164,-61.67844009399414,-45.69639587402344,157.08009338378906,130.36949157714844,145.73159790039062,131.96697998046875,127.63554382324219,125.70915222167969
29,37,93,83,45,47,70,27,31,52,69,94,51,29,22,23,-18.57278060913086,30.067901611328125,24.848052978515625,5.863682270050049,-15.89682674407959,-38.059410095214844,22.07377052307129,-13.105962753295898,-58.19590759277344,-66.34774017333984,-61.66951370239258,-45.675437927246094,157.0725555419922,128.81008911132812,145.63888549804688,131.92628479003906,127.61454010009766,125.68566131591797
29,40,112,92,47,52,75,27,32,54,67,96,51,30,21,22,-18.70754051208496,22.124242782592773,24.78797721862793,5.791936874389648,-15.967545509338379,-38.205135345458984,22.04446029663086,-13.128937721252441,-58.092647552490234,-66.30201721191406,-61.5729866027832,-45.626461029052734,157.07473754882812,124.80670928955078,145.40614318847656,131.88900756835938,127.53142547607422,125.65701293945312
29,40,117,88,43,49,69,27,34,62,70,96,52,30,23,20,-18.92121124267578,16.726064682006836,24.74083137512207,5.719974040985107,-16.154987335205078,-38.37282180786133,22.003870010375977,-12.488760948181152,-57.913307189941406,-66.20914459228516,-61.59117126464844,-45.617034912109375,157.1481170654297,122.38707733154297,145.24691772460938,131.87222290039062,127.58409118652344,125.6378173828125
29,38,113,90,44,48,71,25,34,58,61,74,46,29,25,20,-18.98855972290039,15.07022476196289,24.770557403564453,5.698354244232178,-16.201866149902344,-38.41774368286133,21.99924659729004,-12.13589096069336,-57.79940414428711,-66.17964935302734,-61.588443756103516,-45.611366271972656,157.17222595214844,121.74397277832031,145.13902282714844,131.87570190429688,127.59666442871094,125.62896728515625
26,37,112,85,40,47,60,26,32,67,79,67,40,28,25,20,-19.166507720947266,10.988934516906738,24.807144165039062,5.660887241363525,-16.293611526489258,-38.516868591308594,22.012731552124023,-11.031968116760254,-57.543636322021484,-66.06480407714844,-61.536033630371094,-45.56572341918945,157.23866271972656,120.30579376220703,144.96426391601562,131.86715698242188,127.60069274902344,125.58466339111328
27,42,112,93,45,53,62,25,35,65,81,84,42,30,25,21,-19.32172203063965,7.6503190994262695,24.768253326416016,5.642005920410156,-16.358423233032227,-38.573509216308594,22.051830291748047,-9.841656684875488,-57.40388870239258,-65.9097900390625,-61.45818328857422,-45.488304138183594,157.29315185546875,119.1378173828125,144.98300170898438,131.8179931640625,127.58346557617188,125.5101547241211
28,42,125,86,45,54,54,27,33,71,85,88,47,29,24,21,-19.365110397338867,6.310316562652588,24.761341094970703,5.638416290283203,-16.369258880615234,-38.58051681518555,22.069549560546875,-9.189383506774902,-57.358463287353516,-65.85993194580078,-61.42573928833008,-45.45730972290039,157.3118438720703,118.65717315673828,144.998046875,131.80426025390625,127.57217407226562,125.48308563232422
27,39,120,84,44,52,56,29,33,68,84,83,45,31,25,21,-19.47630500793457,3.4936630725860596,24.777183532714844,5.626033306121826,-16.374387741088867,-38.579891204833984,22.121906280517578,-7.717288970947266,-57.21677780151367,-65.73324584960938,-61.32369613647461,-45.365386962890625,157.37063598632812,117.61539459228516,145.03359985351562,131.78721618652344,127.52490234375,125.39481353759766
22,41,120,72,44,59,65,30,33,73,101,85,48,32,23,19,-19.586318969726562,1.7511922121047974,24.761924743652344,5.629528045654297,-16.368732452392578,-38.56233596801758,22.157880783081055,-6.9571757316589355,-57.14103317260742,-65.61491394042969,-61.2391357421875,-45.285430908203125,157.44459533691406,116.89868927001953,145.18325805664062,131.77891540527344,127.479248046875,125.28778076171875
22,45,128,73,43,56,69,28,36,74,82,80,50,34,25,22,-19.632675170898438,1.1041853427886963,24.75686264038086,5.636349201202393,-16.364885330200195,-38.5526123046875,22.1694278717041,-6.707701683044434,-57.10873794555664,-65.56221771240234,-61.20645523071289,-45.25801467895508,157.47581481933594,116.60841369628906,145.2378387451172,131.76019287109375,127.45695495605469,125.24847412109375
22,41,125,66,41,53,70,28,32,80,79,62,49,34,26,22,-19.763490676879883,-0.295966237783432,24.801422119140625,5.645664691925049,-16.358821868896484,-38.5316276550293,22.1981258392334,-6.26471471786499,-56.96915054321289,-65.39768981933594,-61.11444854736328,-45.18685531616211,157.56654357910156,115.80205535888672,145.31324768066406,131.6505126953125,127.36026000976562,125.11415100097656
21,37,98,81,35,45,69,26,33,76,78,87,59,35,27,23,-19.854095458984375,-1.168471097946167,24.801408767700195,5.641523361206055,-16.364463806152344,-38.51881408691406,22.211942672729492,-5.935543537139893,-56.912803649902344,-65.31029510498047,-61.062137603759766,-45.14860916137695,157.64280700683594,115.22574615478516,145.44094848632812,131.6170654296875,127.30345153808594,125.02546691894531
23,41,98,97,39,54,82,24,35,71,80,102,71,36,26,24,-19.92760467529297,-1.9968831539154053,24.837007522583008,5.634457588195801,-16.383045196533203,-38.51787567138672,22.21524429321289,-5.520601749420166,-56.84023666381836,-65.2120132446289,-61.027557373046875,-45.14027404785156,157.718505859375,114.7366714477539,145.49583435058594,131.52511596679688,127.24224853515625,124.95774841308594
26,43,93,105,42,53,77,22,34,82,57,105,74,38,26,24,-20.03389549255371,-2.7252891063690186,24.923564910888672,5.634711742401123,-16.407350540161133,-38.51023864746094,22.21343994140625,-5.160014629364014,-56.70341873168945,-65.08793640136719,-60.97895812988281,-45.13495635986328,157.82470703125,114.33394622802734,145.51454162597656,131.4305877685547,127.1353988647461,124.85585021972656
29,41,83,113,46,56,74,23,31,79,69,106,73,36,25,23,-20.087127685546875,-3.0349502563476562,24.979907989501953,5.6257100105285645,-16.43311882019043,-38.503238677978516,22.20770835876465,-5.033071517944336,-56.62587356567383,-65.03300476074219,-60.95966720581055,-45.138240814208984,157.87937927246094,114.1631088256836,145.50677490234375,131.37770080566406,127.06832122802734,124.80143737792969
29,43,99,115,44,57,71,24,34,77,88,110,73,36,22,24,-20.125839233398438,-3.334702253341675,25.034971237182617,5.619020938873291,-16.443552017211914,-38.50325012207031,22.202056884765625,-4.894161701202393,-56.554569244384766,-64.9924087524414,-60.94013214111328,-45.15055847167969,157.91879272460938,114.00635528564453,145.4790496826172,131.33226013183594,127.00543975830078,124.75569152832031
32,46,95,100,44,59,72,25,34,78,91,93,65,35,21,25,-20.1610050201416,-3.7012319564819336,25.1027889251709,5.607729434967041,-16.47652244567871,-38.53450012207031,22.1967830657959,-4.640164852142334,-56.472900390625,-64.95194244384766,-60.93254089355469,-45.186344146728516,157.95677185058594,113.76953887939453,145.43096923828125,131.28170776367188,126.93468475341797,124.70854949951172
30,46,100,86,42,57,59,26,37,81,95,86,58,35,19,24,-20.17794418334961,-3.825026750564575,25.11960792541504,5.594714164733887,-16.52112579345703,-38.55492401123047,22.18994140625,-4.510242938995361,-56.459930419921875,-64.9315185546875,-60.9393196105957,-45.21418380737305,157.97415161132812,113.66348266601562,145.45272827148438,131.23963928222656,126.87924194335938,124.68245697021484
28,42,107,93,38,55,60,25,43,79,121,93,53,33,19,25,-20.184846878051758,-3.7349154949188232,25.139665603637695,5.56846809387207,-16.55730628967285,-38.599185943603516,22.18584442138672,-4.455478668212891,-56.445831298828125,-64.91614532470703,-60.946014404296875,-45.252960205078125,157.98306274414062,113.63094329833984,145.4580535888672,131.18972778320312,126.83487701416016,124.67442321777344
27,40,108,82,33,56,63,28,41,80,121,102,52,34,20,24,-20.186838150024414,-0.9301214218139648,25.190528869628906,5.543208122253418,-16.62079620361328,-38.638973236083984,22.17384910583496,-5.433237075805664,-56.383602142333984,-64.91194915771484,-60.98015594482422,-45.30472946166992,157.98464965820312,114.12083435058594,145.35171508789062,131.14413452148438,126.78890991210938,124.65812683105469
28,42,95,74,33,58,72,29,41,79,109,107,57,34,21,23,-20.19226837158203,3.6266911029815674,25.212697982788086,5.536684989929199,-16.633520126342773,-38.628875732421875,22.129470825195312,-7.115433216094971,-56.39015197753906,-64.97023010253906,-61.03800582885742,-45.36409378051758,157.97276306152344,115.35957336425781,145.34429931640625,131.1732177734375,126.7637939453125,124.6081771850586
25,40,99,78,33,60,80,27,43,77,124,115,52,34,21,23,-20.178316116333008,9.413840293884277,25.19969940185547,5.533812522888184,-16.611980438232422,-38.576534271240234,22.024179458618164,-9.102474212646484,-56.52123260498047,-65.1032943725586,-61.159305572509766,-45.473609924316406,157.94117736816406,117.1911849975586,145.45944213867188,131.23269653320312,126.75655364990234,124.52685546875
27,37,109,83,31,53,76,26,45,81,123,107,46,31,22,23,-20.16216468811035,16.53496551513672,25.192459106445312,5.595428466796875,-16.551313400268555,-38.42725372314453,21.864307403564453,-10.880666732788086,-56.728477478027344,-65.3042984008789,-61.34721755981445,-45.62596130371094,157.93148803710938,119.88956451416016,145.7690887451172,131.42172241210938,126.77465057373047,124.3919448852539
28,40,103,70,29,49,70,26,42,71,112,99,47,28,22,23,-20.103290557861328,25.73780632019043,25.23866844177246,5.715476036071777,-16.501924514770508,-38.279319763183594,21.729841232299805,-12.106873512268066,-56.88016891479492,-65.46945190429688,-61.46998596191406,-45.76382827758789,157.9766387939453,123.60424041748047,146.05331420898438,131.64114379882812,126.72265625,124.2770004272461
29,48,175,76,33,59,76,26,43,69,134,89,45,28,21,24,-20.06696128845215,33.18505859375,25.26479721069336,5.77556848526001,-16.511587142944336,-38.25817108154297,21.698698043823242,-11.7858247756958,-56.925697326660156,-65.51200866699219,-61.48907470703125,-45.82435607910156,158.00997924804688,127.24183654785156,146.20335388183594,131.7346954345703,126.6603012084961,124.24674224853516
27,44,178,78,32,61,71,24,45,71,148,75,36,28,21,24,-20.04006576538086,39.67435073852539,25.27854347229004,5.813449859619141,-16.535507202148438,-38.29386901855469,21.70766258239746,-10.054197311401367,-56.92916488647461,-65.51411437988281,-61.48170852661133,-45.876869201660156,158.03372192382812,131.20465087890625,146.29876708984375,131.79721069335938,126.62439727783203,124.2735824584961
29,58,187,89,35,66,73,26,43,82,137,58,37,27,23,25,-20.004579544067383,46.444358825683594,25.264652252197266,5.803968906402588,-16.60150146484375,-38.3194580078125,21.741823196411133,-6.996201515197754,-56.9311408996582,-65.53650665283203,-61.505245208740234,-45.93405532836914,158.06712341308594,136.28903198242188,146.43194580078125,131.91029357910156,126.64794158935547,124.34217834472656
29,60,197,100,36,70,77,27,39,92,142,56,32,25,22,23,-19.981727600097656,50.8405876159668,25.199275970458984,5.775248050689697,-16.6760311126709,-38.329620361328125,21.787805557250977,-4.184479236602783,-56.9482421875,-65.56787109375,-61.54328918457031,-45.97076416015625,158.1238250732422,140.68881225585938,146.60032653808594,132.05421447753906,126.73725128173828,124.42544555664062
27,64,207,104,37,72,84,27,38,113,147,62,32,27,24,23,-19.97456932067871,52.133262634277344,25.178543090820312,5.758732795715332,-16.693666458129883,-38.324378967285156,21.8060359954834,-3.1721067428588867,-56.94996643066406,-65.57723236083984,-61.551658630371094,-45.97391128540039,158.14157104492188,142.31370544433594,146.65476989746094,132.0997772216797,126.77165222167969,124.44915771484375
27,61,185,126,35,65,87,27,39,113,128,91,38,26,23,21,-19.939422607421875,55.07711410522461,25.116012573242188,5.7110276222229,-16.758604049682617,-38.32249069213867,21.86845588684082,-0.5730953216552734,-56.97382736206055,-65.60743713378906,-61.597755432128906,-45.983577728271484,158.19589233398438,146.4816436767578,146.84231567382812,132.254150390625,126.90744018554688,124.5477066040039
32,66,220,193,40,60,82,31,36,111,125,96,49,31,25,22,-19.89067840576172,57.41446304321289,25.019922256469727,5.631791591644287,-16.873083114624023,-38.35478210449219,21.92051124572754,1.7976034879684448,-57.05998611450195,-65.67432403564453,-61.707332611083984,-46.0128288269043,158.23965454101562,150.0420684814453,147.0537567138672,132.39810180664062,127.11278533935547,124.67374420166016
29,57,225,191,42,54,69,29,39,106,123,99,53,34,25,22,-19.875091552734375,58.140342712402344,24.98876190185547,5.602297782897949,-16.901090621948242,-38.37672805786133,21.937116622924805,2.6627655029296875,-57.09116744995117,-65.69395446777344,-61.72825241088867,-46.02872848510742,158.25013732910156,151.22708129882812,147.1201629638672,132.43739318847656,127.16377258300781,124.72132110595703
28,58,207,185,43,58,74,28,41,115,142,109,57,35,26,24,-19.81836700439453,59.798255920410156,24.936450958251953,5.52769136428833,-17.006498336791992,-38.43553924560547,21.996835708618164,4.832947254180908,-57.14698791503906,-65.76522827148438,-61.831600189208984,-46.0780143737793,158.27732849121094,154.1298065185547,147.300537109375,132.60044860839844,127.37764739990234,124.88325500488281
32,53,208,192,47,68,80,30,38,124,151,109,56,35,27,24,-19.76842498779297,60.72062683105469,24.909618377685547,5.472691535949707,-17.021060943603516,-38.46700668334961,22.03710174560547,6.154698848724365,-57.186912536621094,-65.83761596679688,-61.866207122802734,-46.111473083496094,158.30142211914062,155.75851440429688,147.42738342285156,132.747314453125,127.50532531738281,125.0048599243164
30,54,193,179,47,64,69,28,44,142,165,89,55,34,28,26,-19.707073211669922,61.60537338256836,24.85918426513672,5.4675140380859375,-17.04522132873535,-38.47698211669922,22.071985244750977,7.47768497467041,-57.2906379699707,-65.87621307373047,-61.93370056152344,-46.14253234863281,158.33154296875,157.3512420654297,147.65237426757812,132.85836791992188,127.67398834228516,125.13041687011719
28,51,178,118,46,66,70,26,44,152,158,90,48,32,27,25,-19.56808090209961,63.111061096191406,24.860551834106445,5.506690502166748,-16.970638275146484,-38.46172332763672,22.122676849365234,9.818591117858887,-57.46180725097656,-65.95500183105469,-61.982749938964844,-46.22364807128906,158.3943634033203,159.95318603515625,148.06234741210938,133.07530212402344,127.89546966552734,125.38719940185547
32,54,175,145,43,68,74,27,45,156,162,92,44,29,26,26,-19.529340744018555,63.47542953491211,24.870269775390625,5.519251823425293,-16.948564529418945,-38.443885803222656,22.129915237426758,10.378448486328125,-57.50382614135742,-65.97746276855469,-61.99716567993164,-46.2387580871582,158.41122436523438,160.4829559326172,148.15419006347656,133.12353515625,127.94762420654297,125.44528198242188
31,52,183,150,42,63,68,28,43,146,145,79,45,30,25,24,-19.450408935546875,64.24949645996094,24.89211082458496,5.557112216949463,-16.917808532714844,-38.40282440185547,22.13877296447754,11.685554504394531,-57.58909225463867,-66.0203857421875,-62.04905319213867,-46.27465057373047,158.4454803466797,161.69090270996094,148.332275390625,133.22283935546875,128.07325744628906,125.561279296875
29,53,180,138,37,53,62,28,48,147,165,93,42,31,22,26,-19.322999954223633,65.17601013183594,24.990354537963867,5.596698760986328,-16.82175064086914,-38.309814453125,22.12298011779785,13.1113862991333,-57.69073486328125,-66.17183685302734,-62.13748550415039,-46.35845184326172,158.517578125,162.93348693847656,148.55706787109375,133.4650115966797,128.27249145507812,125.76216125488281
30,51,205,150,39,53,61,29,44,138,168,99,48,35,22,27,-19.244951248168945,65.78560638427734,25.069469451904297,5.644927024841309,-16.757421493530273,-38.251617431640625,22.108524322509766,14.111324310302734,-57.74834060668945,-66.25617980957031,-62.20573425292969,-46.42025375366211,158.5652313232422,163.7380828857422,148.69998168945312,133.60330200195312,128.40504455566406,125.88350677490234
32,57,217,153,38,53,64,27,51,155,185,103,50,32,22,27,-19.170717239379883,66.32532501220703,25.158994674682617,5.734473705291748,-16.692983627319336,-38.199790954589844,22.08822250366211,15.086048126220703,-57.79373550415039,-66.2957763671875,-62.27504348754883,-46.485069274902344,158.61605834960938,164.53395080566406,148.816650390625,133.69097900390625,128.53091430664062,125.99661254882812
31,56,219,129,38,59,90,27,48,156,194,102,58,35,24,26,-19.076677322387695,67.02581024169922,25.265867233276367,5.838089942932129,-16.682903289794922,-38.17008972167969,22.05677032470703,16.319732666015625,-57.85045623779297,-66.34180450439453,-62.42812728881836,-46.5859260559082,158.67124938964844,165.49876403808594,148.93788146972656,133.78880310058594,128.7696990966797,126.15850067138672
33,62,268,139,40,69,101,33,47,156,197,102,54,34,22,27,-19.01056480407715,67.44813537597656,25.324312210083008,5.878355503082275,-16.718242645263672,-38.236663818359375,22.036840438842773,17.091983795166016,-57.88237762451172,-66.38433837890625,-62.55039978027344,-46.686058044433594,158.6853485107422,166.05577087402344,148.9710235595703,133.84689331054688,128.94207763671875,126.2928237915039
32,61,265,138,46,77,102,33,44,135,172,92,58,34,23,26,-18.96520233154297,67.86157989501953,25.36359214782715,5.884892463684082,-16.819808959960938,-38.34841537475586,22.017486572265625,17.9392032623291,-57.90751647949219,-66.439208984375,-62.71240234375,-46.79890441894531,158.6915740966797,166.67689514160156,148.98519897460938,133.9070281982422,129.1596221923828,126.43673706054688
31,60,250,128,45,82,109,35,43,131,157,88,63,33,22,23,-18.914405822753906,68.34282684326172,25.39862060546875,5.883033752441406,-17.003704071044922,-38.48855209350586,21.99165916442871,18.93513298034668,-57.951412200927734,-66.51243591308594,-62.96807861328125,-46.949459075927734,158.6903839111328,167.4275665283203,149.01287841796875,133.9808349609375,129.50875854492188,126.63233947753906
28,55,223,119,46,82,110,36,34,112,151,78,67,34,23,22,-18.88642692565918,68.62367248535156,25.419227600097656,5.891366481781006,-17.058183670043945,-38.57113265991211,21.974292755126953,19.666820526123047,-57.9786376953125,-66.54826354980469,-63.06527328491211,-47.043617248535156,158.6811065673828,167.9136505126953,149.02418518066406,134.01296997070312,129.6343231201172,126.75460052490234
30,56,217,113,47,75,89,37,35,113,147,73,65,35,21,22,-18.85104751586914,68.82137298583984,25.439863204956055,5.895053386688232,-17.084325790405273,-38.62723159790039,21.95718002319336,20.1096134185791,-58.01103973388672,-66.59008026123047,-63.134891510009766,-47.12013244628906,158.6651153564453,168.1515655517578,149.03445434570312,134.04672241210938,129.72894287109375,126.85969543457031
30,49,156,102,45,64,78,34,32,106,137,80,73,37,21,23,-18.814237594604492,69.0373306274414,25.45854949951172,5.889768123626709,-17.107666015625,-38.682010650634766,21.946086883544922,20.646095275878906,-58.03799819946289,-66.63365173339844,-63.195499420166016,-47.18792724609375,158.64102172851562,168.4314727783203,149.0416259765625,134.08859252929688,129.81640625,126.95722961425781
31,50,153,111,43,52,68,32,33,109,131,107,77,36,21,21,-18.760995864868164,69.29295349121094,25.47770118713379,5.8772969245910645,-17.159992218017578,-38.75956344604492,21.92682647705078,21.224380493164062,-58.08259963989258,-66.69412994384766,-63.28929138183594,-47.27528381347656,158.60891723632812,168.6741180419922,149.04190063476562,134.1327667236328,129.94972229003906,127.08766174316406
34,54,176,115,41,41,60,30,35,103,126,110,73,35,22,20,-18.727880477905273,69.39483642578125,25.490842819213867,5.870069980621338,-17.189069747924805,-38.82986831665039,21.9119815826416,21.383739471435547,-58.1097412109375,-66.72980499267578,-63.345314025878906,-47.34312057495117,158.58895874023438,168.68528747558594,149.0307159423828,134.15060424804688,130.0224609375,127.18276977539062
32,54,170,111,41,40,57,30,37,87,107,114,73,37,19,22,-18.713380813598633,69.43109893798828,25.494630813598633,5.866746425628662,-17.209224700927734,-38.85184097290039,21.90484046936035,21.4340877532959,-58.12260055541992,-66.7468032836914,-63.37708282470703,-47.3684196472168,158.58001708984375,168.6797332763672,149.02584838867188,134.15940856933594,130.0643768310547,127.21869659423828
30,46,158,112,43,54,66,26,35,73,100,114,80,37,19,21,-18.685161590576172,69.48857116699219,25.505640029907227,5.862549781799316,-17.239988327026367,-38.895748138427734,21.889917373657227,21.517038345336914,-58.14653778076172,-66.7797622680664,-63.435272216796875,-47.42091751098633,158.56321716308594,168.6506805419922,149.01242065429688,134.1740264892578,130.1444549560547,127.29315948486328
28,45,153,112,46,56,63,27,36,74,101,121,74,35,19,20,-18.662303924560547,69.53665924072266,25.51677703857422,5.8543267250061035,-17.282045364379883,-38.9448127746582,21.874204635620117,21.56876564025879,-58.1692008972168,-66.81586456298828,-63.507049560546875,-47.47997283935547,158.54637145996094,168.58473205566406,148.99942016601562,134.19630432128906,130.2393341064453,127.37618255615234
26,43,146,106,47,57,62,28,33,69,99,99,74,38,21,23,-18.643930435180664,69.57272338867188,25.524765014648438,5.8479084968566895,-17.30796241760254,-38.98672866821289,21.854143142700195,21.590055465698242,-58.196739196777344,-66.8519287109375,-63.56935501098633,-47.540496826171875,158.5331573486328,168.50599670410156,148.99203491210938,134.21351623535156,130.3226776123047,127.45745086669922
25,40,81,101,50,56,60,28,30,66,101,102,82,42,22,25,-18.622528076171875,69.57847595214844,25.537193298339844,5.839487552642822,-17.349849700927734,-39.01498794555664,21.820066452026367,21.48735237121582,-58.23753356933594,-66.90510559082031,-63.67234420776367,-47.61262130737305,158.5206298828125,168.35719299316406,148.98854064941406,134.24258422851562,130.46170043945312,127.549560546875
26,38,76,93,48,54,58,27,28,64,124,99,79,43,23,25,-18.604970932006836,69.438232421875,25.539989471435547,5.834005832672119,-17.365934371948242,-39.032283782958984,21.790706634521484,20.872861862182617,-58.27799606323242,-66.94937133789062,-63.7330207824707,-47.66773223876953,158.5179901123047,167.9262237548828,149.0045928955078,134.27601623535156,130.54006958007812,127.62538146972656
28,48,118,97,45,52,61,28,29,64,113,102,74,41,24,24,-18.58526611328125,69.05614471435547,25.549779891967773,5.827968120574951,-17.37844467163086,-39.049652099609375,21.762741088867188,19.470874786376953,-58.30983352661133,-66.9933090209961,-63.788944244384766,-47.72013473510742,158.51882934570312,166.92340087890625,149.00596618652344,134.31216430664062,130.61891174316406,127.70368194580078
28,50,126,93,47,57,66,27,29,61,109,91,73,40,25,24,-18.569656372070312,68.2481460571289,25.531251907348633,5.796754837036133,-17.406808853149414,-39.09215545654297,21.717798233032227,16.931560516357422,-58.37171173095703,-67.06649780273438,-63.87267303466797,-47.79962158203125,158.52989196777344,164.77685546875,149.02667236328125,134.38259887695312,130.74887084960938,127.83595275878906
28,53,129,89,46,57,68,27,29,54,105,97,74,42,22,23,-18.559467315673828,67.5267562866211,25.505800247192383,5.751371383666992,-17.442045211791992,-39.14143371582031,21.67599105834961,14.925691604614258,-58.42892074584961,-67.13396453857422,-63.942996978759766,-47.86741638183594,158.5490264892578,162.7386474609375,149.03424072265625,134.4470672607422,130.87335205078125,127.9747085571289
28,51,131,85,43,67,76,24,29,50,99,92,63,37,23,23,-18.55194854736328,66.46343994140625,25.45111083984375,5.683054447174072,-17.471445083618164,-39.18482971191406,21.633731842041016,12.464434623718262,-58.50479507446289,-67.20600891113281,-63.99892044067383,-47.910953521728516,158.56597900390625,160.02638244628906,149.0553436279297,134.51852416992188,131.00454711914062,128.10813903808594
26,52,136,84,44,70,81,27,27,47,73,103,63,35,21,21,-18.573917388916016,63.501068115234375,25.3001766204834,5.518532752990723,-17.504817962646484,-39.21446990966797,21.51555633544922,6.989559650421143,-58.68524932861328,-67.37455749511719,-64.10026550292969,-47.965545654296875,158.62132263183594,154.08531188964844,149.08518981933594,134.69940185546875,131.28005981445312,128.37599182128906
23,41,101,72,46,63,72,27,26,44,70,101,57,34,22,20,-18.597681045532227,62.34709167480469,25.2270565032959,5.450078010559082,-17.530941009521484,-39.22970199584961,21.458126068115234,5.212737560272217,-58.76543426513672,-67.44223022460938,-64.13825225830078,-47.99457931518555,158.65167236328125,152.13389587402344,149.09783935546875,134.78704833984375,131.39190673828125,128.50924682617188
23,37,90,77,40,64,89,29,26,45,77,101,64,36,22,20,-18.715803146362305,58.35725402832031,24.92047882080078,5.173844337463379,-17.554508209228516,-39.341060638427734,21.22637176513672,0.30792906880378723,-59.07442855834961,-67.68546295166016,-64.1855697631836,-48.09166717529297,158.7593231201172,146.6039276123047,149.07318115234375,135.03668212890625,131.68919372558594,128.9871826171875
23,39,95,77,42,67,95,32,25,45,76,90,58,36,23,18,-18.883377075195312,51.64503860473633,24.44538688659668,4.95646858215332,-17.53130531311035,-39.39149856567383,20.962600708007812,-5.737317085266113,-59.45983123779297,-67.81604766845703,-64.09400177001953,-48.00383758544922,158.8410186767578,139.5952606201172,149.00643920898438,135.22360229492188,131.91250610351562,129.35581970214844
22,38,94,77,44,59,88,32,26,68,83,90,57,36,21,20,-18.883377075195312,51.64503860473633,24.44538688659668,4.95646858215332,-17.53130531311035,-39.39149856567383,20.962600708007812,-5.737317085266113,-59.45983123779297,-67.81604766845703,-64.09400177001953,-48.00383758544922,158.8410186767578,139.5952606201172,149.00643920898438,135.22360229492188,131.91250610351562,129.35581970214844
22,39,100,78,45,64,91,30,28,75,73,80,60,37,21,22,-19.02243423461914,46.06721496582031,24.18877601623535,4.902231216430664,-17.556835174560547,-39.46321105957031,20.874425888061523,-9.450909614562988,-59.53588104248047,-67.75263214111328,-63.99482345581055,-47.89828109741211,158.86062622070312,135.20140075683594,148.897216796875,135.2396697998047,132.01026916503906,129.50653076171875
26,47,123,93,43,66,92,30,30,78,79,75,59,38,21,24,-19.194194793701172,40.15964126586914,23.932809829711914,4.829370975494385,-17.691553115844727,-39.61262893676758,20.868408203125,-12.360746383666992,-59.526268005371094,-67.59925079345703,-63.91048049926758,-47.78518295288086,158.85865783691406,131.50706481933594,148.79904174804688,135.18698120117188,132.1448211669922,129.66732788085938
31,53,149,83,43,61,72,30,29,78,71,75,51,35,20,24,-19.286373138427734,38.19108963012695,23.848987579345703,4.754027843475342,-17.781002044677734,-39.71778106689453,20.909345626831055,-12.980850219726562,-59.441280364990234,-67.52993774414062,-63.85979080200195,-47.736629486083984,158.83729553222656,130.53724670410156,148.69676208496094,135.17552185058594,132.19065856933594,129.73577880859375
31,52,151,78,41,60,69,27,31,77,66,67,49,33,21,26,-19.54399871826172,29.990659713745117,23.61113929748535,4.51952600479126,-18.012056350708008,-39.980716705322266,21.032745361328125,-14.255491256713867,-59.25432586669922,-67.36450958251953,-63.715065002441406,-47.594085693359375,158.79750061035156,127.19669342041016,148.52789306640625,135.1539306640625,132.2980499267578,129.89881896972656
34,52,149,78,39,60,69,26,31,60,64,61,52,36,20,25,-19.685810089111328,24.919918060302734,23.531713485717773,4.434963703155518,-18.099552154541016,-40.100704193115234,21.098430633544922,-14.329972267150879,-59.11585235595703,-67.25538635253906,-63.62692642211914,-47.52643585205078,158.7951202392578,125.30780792236328,148.42953491210938,135.13389587402344,132.32711791992188,129.9667205810547
34,51,142,92,35,53,58,25,31,62,85,58,48,35,20,22,-19.8218936920166,20.896207809448242,23.506032943725586,4.371773719787598,-18.169267654418945,-40.179874420166016,21.144506454467773,-13.895424842834473,-58.95503234863281,-67.15872955322266,-63.556190490722656,-47.46634292602539,158.82550048828125,123.9566421508789,148.30416870117188,135.10671997070312,132.33261108398438,129.98585510253906
32,55,134,79,38,60,66,26,29,62,78,62,50,35,21,21,-20.044818878173828,15.864730834960938,23.478801727294922,4.334930896759033,-18.24188804626465,-40.23059844970703,21.1669864654541,-12.749457359313965,-58.759681701660156,-67.00566101074219,-63.46654510498047,-47.391685485839844,158.9604949951172,122.4130859375,148.2268524169922,135.04090881347656,132.2958526611328,129.93545532226562
27,50,109,76,39,61,63,22,30,70,80,63,49,34,22,21,-20.195068359375,13.405569076538086,23.46857452392578,4.353226661682129,-18.24419403076172,-40.213680267333984,21.163150787353516,-12.00007152557373,-58.64577102661133,-66.89986419677734,-63.40354919433594,-47.34452819824219,159.09266662597656,121.77584075927734,148.22537231445312,135.00527954101562,132.2451629638672,129.86988830566406
33,51,110,84,38,59,64,22,30,71,84,69,54,38,22,20,-20.313385009765625,11.5770902633667,23.488737106323242,4.394315242767334,-18.21668243408203,-40.18064498901367,21.167892456054688,-11.370172500610352,-58.51594543457031,-66.77308654785156,-63.33122634887695,-47.303890228271484,159.19703674316406,121.3595199584961,148.17474365234375,134.92437744140625,132.18397521972656,129.82122802734375
32,50,109,80,43,69,83,23,31,75,79,72,54,37,24,19,-20.52887535095215,9.019028663635254,23.519073486328125,4.462262153625488,-18.187171936035156,-40.13280487060547,21.23302459716797,-10.043458938598633,-58.25965881347656,-66.50619506835938,-63.1799430847168,-47.19709777832031,159.40484619140625,120.85102081298828,148.17257690429688,134.8177032470703,132.14149475097656,129.76719665527344
35,55,114,68,47,75,91,27,35,82,56,70,52,37,24,22,-20.597280502319336,7.4577131271362305,23.566848754882812,4.507917881011963,-18.147296905517578,-40.08403015136719,21.28118324279785,-9.147177696228027,-58.115379333496094,-66.372802734375,-63.09016799926758,-47.13078689575195,159.4915313720703,120.44550323486328,148.14723205566406,134.75872802734375,132.1055908203125,129.72633361816406
34,46,106,64,43,68,88,26,35,81,60,70,55,34,23,22,-20.67032241821289,5.943946838378906,23.640031814575195,4.595202445983887,-18.06562614440918,-39.99925994873047,21.337169647216797,-8.11148452758789,-57.93886184692383,-66.16509246826172,-62.97053909301758,-47.048988342285156,159.59812927246094,120.10846710205078,148.1186065673828,134.5981903076172,132.0144805908203,129.64596557617188
38,54,102,68,43,67,87,26,35,89,67,89,56,35,23,23,-20.741409301757812,5.06227970123291,23.71179962158203,4.667966842651367,-17.979516983032227,-39.91558837890625,21.36695671081543,-7.45749044418335,-57.79412841796875,-66.03338623046875,-62.884586334228516,-46.9980583190918,159.70303344726562,120.00701141357422,148.11663818359375,134.53045654296875,131.9450225830078,129.5662078857422
32,53,93,59,44,69,87,27,34,88,61,94,54,32,22,23,-20.785526275634766,4.1371870040893555,23.78594207763672,4.733725547790527,-17.8983097076416,-39.83504867553711,21.395645141601562,-6.8203935623168945,-57.670196533203125,-65.91602325439453,-62.80811309814453,-46.954593658447266,159.78741455078125,119.86843872070312,148.11285400390625,134.45858764648438,131.86248779296875,129.4886932373047
32,53,95,59,46,61,76,26,33,85,65,87,54,30,22,23,-20.81489372253418,3.026479482650757,23.856494903564453,4.7951202392578125,-17.82383155822754,-39.7588005065918,21.41605567932129,-6.15376615524292,-57.574951171875,-65.7872314453125,-62.73587417602539,-46.92683410644531,159.8463134765625,119.59254455566406,148.1054229736328,134.30557250976562,131.72979736328125,129.39715576171875
30,51,106,58,44,59,76,25,26,71,68,91,58,28,22,20,-20.827056884765625,2.549633741378784,23.902904510498047,4.825592517852783,-17.79056739807129,-39.72019958496094,21.420896530151367,-5.948570728302002,-57.513248443603516,-65.71971893310547,-62.70580291748047,-46.919090270996094,159.87115478515625,119.43910217285156,148.05201721191406,134.20535278320312,131.64195251464844,129.3416290283203
30,50,103,61,44,66,77,25,27,71,63,95,52,27,22,19,-20.830596923828125,2.0632236003875732,23.9483585357666,4.838947772979736,-17.77452278137207,-39.698612213134766,21.422409057617188,-5.773939609527588,-57.44688034057617,-65.65953826904297,-62.688838958740234,-46.92180252075195,159.88487243652344,119.23214721679688,147.94789123535156,134.08778381347656,131.56283569335938,129.29847717285156
26,48,95,53,44,71,89,25,29,62,59,83,54,27,22,19,-20.834362030029297,1.6065261363983154,24.017562866210938,4.847239017486572,-17.770366668701172,-39.691001892089844,21.424068450927734,-5.664498805999756,-57.33623504638672,-65.59237670898438,-62.653263092041016,-46.93876266479492,159.89617919921875,119.0180892944336,147.75747680664062,133.933349609375,131.41021728515625,129.24615478515625
28,52,121,74,41,71,90,25,29,66,67,83,52,23,23,16,-20.837982177734375,1.384616732597351,24.045547485351562,4.845859050750732,-17.778608322143555,-39.68434524536133,21.42426872253418,-5.623565673828125,-57.3065185546875,-65.53610229492188,-62.617130279541016,-46.94413375854492,159.9003143310547,118.90379333496094,147.72122192382812,133.80917358398438,131.2819061279297,129.20608520507812
29,55,118,83,35,67,87,25,29,66,74,86,50,23,23,18,-20.838651657104492,1.1744507551193237,24.07205581665039,4.83963680267334,-17.80897331237793,-39.69294357299805,21.423921585083008,-5.582139015197754,-57.25570297241211,-65.48532104492188,-62.58645248413086,-46.949344635009766,159.90097045898438,118.80347442626953,147.61309814453125,133.69032287597656,131.15675354003906,129.17372131347656
28,50,102,89,37,62,81,26,31,67,78,88,44,26,24,18,-20.83334732055664,0.9477866888046265,24.10907745361328,4.863775253295898,-17.799850463867188,-39.67463302612305,21.417381286621094,-5.491823673248291,-57.22610855102539,-65.42083740234375,-62.50299072265625,-46.959468841552734,159.8958282470703,118.67825317382812,147.5667266845703,133.53936767578125,130.9020233154297,129.09556579589844
27,55,99,88,39,59,80,27,31,77,87,84,48,28,23,19,-20.828996658325195,0.9406200647354126,24.1257381439209,4.885379791259766,-17.782651901245117,-39.65140151977539,21.411331176757812,-5.47848653793335,-57.22364044189453,-65.40777587890625,-62.47956848144531,-46.96091842651367,159.8903045654297,118.65835571289062,147.56845092773438,133.50625610351562,130.81866455078125,129.0514373779297
27,50,109,97,38,51,71,28,31,80,88,79,46,28,25,18,-20.803081512451172,1.0530394315719604,24.212160110473633,4.988738059997559,-17.686372756958008,-39.554317474365234,21.37737464904785,-5.471200942993164,-57.19398498535156,-65.3714370727539,-62.43819808959961,-46.977149963378906,159.86033630371094,118.64335632324219,147.50579833984375,133.3857421875,130.58567810058594,128.87557983398438
26,44,85,92,44,52,73,26,30,79,89,77,51,29,24,22,-20.756025314331055,1.305174708366394,24.31368637084961,5.123225212097168,-17.560636520385742,-39.4273796081543,21.327754974365234,-5.426646709442139,-57.18210983276367,-65.36082458496094,-62.42788314819336,-47.00733184814453,159.80850219726562,118.62242889404297,147.440673828125,133.2735595703125,130.37939453125,128.6746368408203
25,43,91,86,43,51,73,27,31,85,85,74,49,29,23,21,-20.728214263916016,1.7024976015090942,24.352867126464844,5.178915023803711,-17.507789611816406,-39.37106704711914,21.297780990600586,-5.417132377624512,-57.19144821166992,-65.36978149414062,-62.442203521728516,-47.02910614013672,159.78497314453125,118.71511840820312,147.40869140625,133.2300262451172,130.3126220703125,128.59686279296875
25,43,100,76,42,66,87,24,30,85,91,69,48,29,22,22,-20.640949249267578,5.309477806091309,24.482074737548828,5.3525710105896,-17.33031463623047,-39.18714141845703,21.154815673828125,-6.578610420227051,-57.29863739013672,-65.47870635986328,-62.5255012512207,-47.1431884765625,159.69866943359375,119.56014251708984,147.3874969482422,133.1509246826172,130.0829315185547,128.34024047851562
26,44,105,82,42,64,86,22,32,86,109,72,50,28,23,22,-20.506591796875,13.3887300491333,24.654605865478516,5.585107326507568,-17.095190048217773,-38.93820571899414,20.869770050048828,-10.10045051574707,-57.56485366821289,-65.76558685302734,-62.747520446777344,-47.395687103271484,159.5784149169922,121.51895904541016,147.47000122070312,133.16622924804688,129.83580017089844,128.01788330078125
25,43,104,84,44,63,83,21,37,85,117,81,48,28,23,26,-20.472957611083984,16.652067184448242,24.696136474609375,5.649807929992676,-17.02968978881836,-38.863468170166016,20.799585342407227,-11.089003562927246,-57.62604904174805,-65.82962799072266,-62.80705642700195,-47.45103073120117,159.56800842285156,122.53955078125,147.5198516845703,133.18858337402344,129.8003692626953,127.93001556396484
31,45,113,79,38,60,77,23,38,85,119,76,46,28,24,24,-20.27289581298828,25.707691192626953,24.887426376342773,5.8790507316589355,-16.811124801635742,-38.622962951660156,20.612951278686523,-13.146413803100586,-57.78563690185547,-66.01579284667969,-62.950157165527344,-47.56596374511719,159.60667419433594,125.90185546875,147.62156677246094,133.27499389648438,129.700439453125,127.69703674316406
30,44,114,80,39,62,81,24,44,85,136,83,45,27,23,25,-20.16615104675293,30.754077911376953,25.016809463500977,6.0336103439331055,-16.700336456298828,-38.47213363647461,20.534269332885742,-13.393248558044434,-57.844303131103516,-66.08048248291016,-63.01262664794922,-47.60954284667969,159.66749572753906,128.1732635498047,147.7210693359375,133.323486328125,129.64215087890625,127.57610321044922
31,48,128,95,38,54,73,24,43,88,130,86,49,31,24,25,-20.070180892944336,36.0250358581543,25.1177921295166,6.160438537597656,-16.597000122070312,-38.357398986816406,20.474592208862305,-12.833627700805664,-57.91030502319336,-66.13143157958984,-63.040767669677734,-47.64814758300781,159.7349395751953,130.77969360351562,147.8541259765625,133.37551879882812,129.58819580078125,127.50025939941406
32,43,137,114,40,53,70,27,44,82,130,94,51,30,26,24,-19.993526458740234,43.01725769042969,25.21535301208496,6.281018257141113,-16.4901065826416,-38.23301315307617,20.429946899414062,-10.59478759765625,-57.953609466552734,-66.17649841308594,-63.057525634765625,-47.682579040527344,159.83151245117188,135.18316650390625,148.03097534179688,133.47882080078125,129.56710815429688,127.46136474609375
33,43,160,112,44,58,76,28,45,77,124,88,55,32,25,22,-19.952150344848633,46.42307662963867,25.28299331665039,6.340958118438721,-16.423494338989258,-38.17365646362305,20.433521270751953,-8.91468334197998,-57.92747497558594,-66.18211364746094,-63.050662994384766,-47.69472122192383,159.87783813476562,137.9993438720703,148.09115600585938,133.5457763671875,129.58294677734375,127.4725112915039
28,44,179,115,46,67,86,29,45,80,123,84,52,33,31,22,-19.90789222717285,49.54433822631836,25.346437454223633,6.402405261993408,-16.380653381347656,-38.11928939819336,20.4499568939209,-6.885801792144775,-57.8971061706543,-66.17898559570312,-63.05128860473633,-47.70499801635742,159.92420959472656,141.4882049560547,148.1611785888672,133.6182403564453,129.61917114257812,127.50816345214844
31,48,190,117,48,68,81,31,40,75,110,80,53,34,33,22,-19.80906867980957,53.27695083618164,25.46764373779297,6.4903950691223145,-16.262121200561523,-38.00290298461914,20.510343551635742,-3.8071987628936768,-57.83064651489258,-66.17364501953125,-63.00724792480469,-47.67865753173828,159.99713134765625,146.4250946044922,148.29078674316406,133.76092529296875,129.69049072265625,127.5693588256836
31,49,183,125,46,62,75,33,45,115,116,72,50,29,33,22,-19.72786521911621,55.391231536865234,25.525211334228516,6.570880889892578,-16.20769500732422,-37.936222076416016,20.57175064086914,-1.648517370223999,-57.81528854370117,-66.1413803100586,-62.98839569091797,-47.65473175048828,160.03799438476562,149.7859649658203,148.43138122558594,133.8588409423828,129.77647399902344,127.63240814208984
29,53,188,121,44,59,79,32,44,123,96,78,43,30,31,23,-19.600051879882812,57.1612663269043,25.63881492614746,6.68315315246582,-16.091732025146484,-37.85712814331055,20.66992950439453,0.3665924072265625,-57.748287200927734,-66.09552001953125,-62.93244171142578,-47.622528076171875,160.06993103027344,152.63401794433594,148.55519104003906,133.9893798828125,129.88392639160156,127.7435531616211
28,55,179,122,41,63,85,32,41,130,105,87,41,27,30,21,-19.375375747680664,59.20130920410156,25.81685447692871,6.870075702667236,-15.932266235351562,-37.732120513916016,20.809452056884766,2.923485040664673,-57.69205093383789,-66.02965545654297,-62.88883590698242,-47.589656829833984,160.0746307373047,155.8690643310547,148.7366943359375,134.13592529296875,130.0546112060547,127.90847778320312
29,54,168,125,40,53,78,30,44,132,123,93,41,26,22,22,-19.220930099487305,60.35261535644531,25.948909759521484,6.985013008117676,-15.834491729736328,-37.63978958129883,20.91522979736328,4.551629066467285,-57.6516227722168,-65.99838256835938,-62.86857986450195,-47.57260513305664,160.04928588867188,157.66384887695312,148.87355041503906,134.25489807128906,130.19387817382812,128.03939819335938
25,52,166,128,37,51,75,28,45,133,123,97,43,25,20,21,-19.062803268432617,61.2951774597168,26.09175682067871,7.122849464416504,-15.711509704589844,-37.57172393798828,21.00790786743164,5.871182441711426,-57.61502456665039,-65.95982360839844,-62.84282684326172,-47.58037567138672,160.0247344970703,158.96466064453125,148.99510192871094,134.36077880859375,130.31565856933594,128.184814453125
25,58,177,113,36,54,74,28,41,120,152,136,50,27,19,21,-18.9888973236084,61.787757873535156,26.16708755493164,7.183186054229736,-15.658275604248047,-37.52949523925781,21.049165725708008,6.592110633850098,-57.590553283691406,-65.95021057128906,-62.83619689941406,-47.581146240234375,160.01611328125,159.66285705566406,149.04286193847656,134.41671752929688,130.37979125976562,128.25057983398438
29,58,188,104,39,63,81,28,46,126,152,127,51,28,21,23,-18.798948287963867,63.015403747558594,26.388654708862305,7.362124443054199,-15.50767707824707,-37.42237854003906,21.154376983642578,8.507051467895508,-57.49870300292969,-65.91451263427734,-62.81278610229492,-47.582698822021484,159.9995574951172,161.28363037109375,149.12081909179688,134.54214477539062,130.52761840820312,128.41363525390625
29,64,183,97,39,59,71,28,43,125,150,120,53,33,24,23,-18.620893478393555,64.42969512939453,26.595928192138672,7.5213775634765625,-15.372685432434082,-37.33128356933594,21.2447566986084,10.948814392089844,-57.45793533325195,-65.90371704101562,-62.80841827392578,-47.59968566894531,159.96517944335938,163.25584411621094,149.25164794921875,134.6594696044922,130.66091918945312,128.55284118652344
27,61,180,94,40,63,72,26,40,130,139,116,54,34,25,24,-18.57860565185547,64.816162109375,26.630449295043945,7.558565139770508,-15.341740608215332,-37.31361770629883,21.26137924194336,11.641738891601562,-57.489356994628906,-65.90422821044922,-62.81324768066406,-47.60918426513672,159.95693969726562,163.78550720214844,149.3496856689453,134.6851348876953,130.69447326660156,128.58656311035156
29,60,189,88,40,60,70,26,41,134,149,112,51,36,26,25,-18.455177307128906,65.85417175292969,26.74394416809082,7.665720462799072,-15.273850440979004,-37.254913330078125,21.298084259033203,13.543156623840332,-57.55986022949219,-65.92097473144531,-62.85859680175781,-47.650333404541016,159.935302734375,165.1339874267578,149.58584594726562,134.77857971191406,130.82000732421875,128.69786071777344
28,55,185,101,41,56,70,26,45,123,121,80,48,37,26,23,-18.386892318725586,66.3755874633789,26.82267189025879,7.721480846405029,-15.224445343017578,-37.21841049194336,21.3028507232666,14.443405151367188,-57.59904479980469,-65.95928192138672,-62.90000534057617,-47.691646575927734,159.93484497070312,165.75595092773438,149.7190704345703,134.86338806152344,130.90492248535156,128.77133178710938
28,61,181,106,38,52,60,25,39,110,126,96,54,39,25,22,-18.313344955444336,66.96073150634766,26.920581817626953,7.791910171508789,-15.169012069702148,-37.17981719970703,21.304044723510742,15.526996612548828,-57.613731384277344,-65.99420928955078,-62.950782775878906,-47.74076461791992,159.94308471679688,166.48971557617188,149.8145294189453,134.94715881347656,131.0048828125,128.8538055419922
28,54,184,107,36,53,61,26,39,99,127,96,56,36,22,22,-18.206226348876953,67.70184326171875,27.09046745300293,7.907642841339111,-15.097447395324707,-37.11077880859375,21.301809310913086,16.90189552307129,-57.61640930175781,-66.0457992553711,-63.04250717163086,-47.812774658203125,159.9582061767578,167.32504272460938,149.9303436279297,135.0777587890625,131.1758270263672,128.96841430664062
31,55,183,134,34,47,53,26,41,102,120,102,57,36,23,26,-18.137754440307617,68.210693359375,27.19422149658203,8.003466606140137,-15.052220344543457,-37.071659088134766,21.297807693481445,17.895111083984375,-57.630714416503906,-66.06095123291016,-63.10780334472656,-47.86246109008789,159.96685791015625,167.83847045898438,150.02342224121094,135.13705444335938,131.28623962402344,129.03857421875
33,59,181,132,36,61,69,28,45,98,102,106,60,34,21,27,-18.07585334777832,68.71104431152344,27.2955379486084,8.096208572387695,-14.991864204406738,-37.034053802490234,21.289358139038086,18.90306854248047,-57.64147186279297,-66.07738494873047,-63.16106414794922,-47.91518020629883,159.9767303466797,168.30032348632812,150.10545349121094,135.19253540039062,131.38331604003906,129.1060791015625
33,64,197,122,36,67,75,29,43,99,106,93,64,33,37,27,-17.99055290222168,69.22598266601562,27.443090438842773,8.238207817077637,-14.898164749145508,-36.96299362182617,21.264301300048828,19.96685218811035,-57.65837478637695,-66.10710906982422,-63.244384765625,-47.99787521362305,159.9942626953125,168.76905822753906,150.2080535888672,135.27500915527344,131.51681518554688,129.2043914794922
32,56,183,111,36,65,73,27,42,109,101,71,59,33,56,28,-17.9288330078125,69.59736633300781,27.54866600036621,8.323896408081055,-14.813739776611328,-36.9243278503418,21.250776290893555,20.85350799560547,-57.66365432739258,-66.1432876586914,-63.285037994384766,-48.05289840698242,159.9999237060547,169.16734313964844,150.26963806152344,135.35289001464844,131.59384155273438,129.26686096191406
32,55,172,117,37,66,78,28,43,114,108,72,56,34,58,28,-17.87216567993164,69.92005157470703,27.644826889038086,8.403264045715332,-14.742307662963867,-36.88864517211914,21.239633560180664,21.684120178222656,-57.66819763183594,-66.1658706665039,-63.322914123535156,-48.09755325317383,160.0043487548828,169.5792694091797,150.32545471191406,135.4124755859375,131.66688537597656,129.3187713623047
34,58,179,90,40,71,84,30,48,108,110,70,57,34,61,23,-17.783666610717773,70.38622283935547,27.76907730102539,8.515886306762695,-14.647177696228027,-36.8360710144043,21.22462272644043,22.833328247070312,-57.69681930541992,-66.20201110839844,-63.382476806640625,-48.1595344543457,160.00921630859375,170.18833923339844,150.45281982421875,135.51019287109375,131.78533935546875,129.4003143310547
32,64,181,101,45,65,77,29,43,124,115,67,59,34,62,20,-17.755170822143555,70.52365112304688,27.806156158447266,8.54957103729248,-14.614749908447266,-36.81275177001953,21.2185115814209,23.175676345825195,-57.70682907104492,-66.21727752685547,-63.401145935058594,-48.18160629272461,160.00906372070312,170.3613739013672,150.49136352539062,135.54458618164062,131.82131958007812,129.43128967285156
31,57,160,104,45,70,78,29,41,119,116,71,53,35,56,19,-17.687108993530273,70.84027862548828,27.907896041870117,8.640681266784668,-14.527007102966309,-36.747013092041016,21.205156326293945,24.043607711791992,-57.71721267700195,-66.24906921386719,-63.44454574584961,-48.23809051513672,160.0052032470703,170.74111938476562,150.56851196289062,135.62599182128906,131.9077606201172,129.50904846191406
30,57,170,104,47,68,76,28,41,110,121,95,62,36,39,17,-17.63069725036621,71.04499053955078,27.987411499023438,8.713245391845703,-14.46824836730957,-36.69438552856445,21.19757843017578,24.56138801574707,-57.72465896606445,-66.27325439453125,-63.48506546020508,-48.28142547607422,159.99517822265625,170.970458984375,150.63095092773438,135.69235229492188,131.98936462402344,129.57241821289062
33,58,200,101,48,76,79,27,40,108,109,99,61,35,36,19,-17.59893798828125,71.13446044921875,28.032041549682617,8.753896713256836,-14.43500804901123,-36.66693115234375,21.19542694091797,24.738574981689453,-57.727413177490234,-66.28643035888672,-63.50687789916992,-48.306819915771484,159.98651123046875,171.04612731933594,150.67037963867188,135.7352294921875,132.037109375,129.61126708984375
31,58,180,93,46,75,78,25,33,103,112,100,65,34,31,21,-17.56821632385254,71.2080078125,28.07195281982422,8.789352416992188,-14.408644676208496,-36.64702224731445,21.187488555908203,24.851137161254883,-57.736785888671875,-66.30423736572266,-63.53423309326172,-48.337162017822266,159.97657775878906,171.0849609375,150.7117462158203,135.78280639648438,132.0877227783203,129.65139770507812
31,51,160,90,43,72,78,25,30,84,114,114,69,36,30,23,-17.553123474121094,71.23965454101562,28.086671829223633,8.803171157836914,-14.399206161499023,-36.640865325927734,21.18292999267578,24.869441986083984,-57.74541091918945,-66.31371307373047,-63.55170440673828,-48.355247497558594,159.96923828125,171.07826232910156,150.73590087890625,135.8083038330078,132.1202392578125,129.67723083496094
29,49,149,82,44,63,72,25,28,96,104,118,70,33,27,24,-17.545515060424805,71.26443481445312,28.086597442626953,8.8060941696167,-14.396452903747559,-36.64284133911133,21.17840003967285,24.88422393798828,-57.73931884765625,-66.32508850097656,-63.56427764892578,-48.36971664428711,159.9623260498047,171.05657958984375,150.72108459472656,135.828369140625,132.14303588867188,129.69601440429688
29,49,133,96,42,70,82,27,31,92,95,107,67,30,25,26,-17.541221618652344,71.2691650390625,28.079362869262695,8.801373481750488,-14.402710914611816,-36.652984619140625,21.17340660095215,24.8553409576416,-57.74065017700195,-66.33699035644531,-63.57532501220703,-48.38100051879883,159.95635986328125,171.0234375,150.71153259277344,135.8460235595703,132.16270446777344,129.71047973632812
26,53,80,87,42,57,71,25,29,87,89,107,73,32,23,24,-17.543916702270508,71.1782455444336,28.05975914001465,8.781302452087402,-14.42243766784668,-36.67329025268555,21.16201400756836,24.560014724731445,-57.76046371459961,-66.35269165039062,-63.59117889404297,-48.394508361816406,159.95220947265625,170.90933227539062,150.7240447998047,135.8663330078125,132.1834259033203,129.7257843017578
25,52,85,81,40,56,75,25,28,84,82,109,70,33,22,24,-17.56577491760254,70.6412124633789,27.96923828125,8.69668960571289,-14.502883911132812,-36.73750305175781,21.12358856201172,22.991640090942383,-57.8134880065918,-66.41510009765625,-63.64290237426758,-48.422149658203125,159.94810485839844,170.14952087402344,150.72122192382812,135.91458129882812,132.2401885986328,129.75753784179688
26,46,84,72,40,55,72,26,27,76,73,99,67,28,21,23,-17.620189666748047,69.84888458251953,27.830968856811523,8.564146995544434,-14.611177444458008,-36.84264373779297,21.073150634765625,20.743896484375,-57.895774841308594,-66.48995208740234,-63.67867660522461,-48.451568603515625,159.9506072998047,169.07424926757812,150.7266845703125,135.95364379882812,132.2661895751953,129.79067993164062
29,50,81,83,45,60,81,25,28,50,66,100,65,30,23,23,-17.680105209350586,68.9046630859375,27.648975372314453,8.394817352294922,-14.751158714294434,-36.978328704833984,21.022018432617188,18.186012268066406,-57.98428726196289,-66.56895446777344,-63.71730422973633,-48.4770393371582,159.95738220214844,167.76531982421875,150.70130920410156,135.99090576171875,132.30288696289062,129.8372039794922
29,48,71,83,44,57,70,25,25,48,60,95,68,30,22,19,-17.81995964050293,67.07669830322266,27.294086456298828,8.053040504455566,-14.990161895751953,-37.23426055908203,20.921573638916016,14.017594337463379,-58.1347770690918,-66.71324920654297,-63.74857711791992,-48.5037956237793,159.97982788085938,165.3582305908203,150.62484741210938,136.05010986328125,132.34136962890625,129.90184020996094
32,42,69,87,45,54,71,27,25,43,54,97,61,28,23,20,-17.938411712646484,65.57518768310547,27.01480484008789,7.792941570281982,-15.193888664245605,-37.429656982421875,20.834238052368164,11.118681907653809,-58.25019073486328,-66.81396484375,-63.79288101196289,-48.526756286621094,160.0022735595703,163.5673065185547,150.53839111328125,136.07655334472656,132.37876892089844,129.95657348632812
33,38,60,90,44,52,64,27,26,41,51,95,62,28,24,21,-18.073522567749023,63.957122802734375,26.70257568359375,7.511936664581299,-15.3744478225708,-37.61263656616211,20.731828689575195,8.269314765930176,-58.40502166748047,-66.92427062988281,-63.798988342285156,-48.536895751953125,160.02508544921875,161.45761108398438,150.4751739501953,136.08737182617188,132.35812377929688,130.00379943847656
34,39,60,89,43,53,61,27,25,40,56,96,58,28,26,19,-18.262792587280273,60.874149322509766,26.2290096282959,7.090255260467529,-15.507285118103027,-37.832611083984375,20.56727409362793,3.5815837383270264,-58.64624786376953,-67.06047821044922,-63.64401626586914,-48.476505279541016,160.001708984375,157.42660522460938,150.2498779296875,135.9999237060547,132.13510131835938,130.00445556640625
34,36,62,79,37,51,57,26,25,46,54,97,58,27,23,20,-18.37946319580078,58.23046875,25.889663696289062,6.850485801696777,-15.537774085998535,-37.971805572509766,20.454586029052734,0.11006690561771393,-58.83757781982422,-67.09467315673828,-63.45119857788086,-48.37060546875,159.94436645507812,154.02325439453125,150.05087280273438,135.86155700683594,131.8909912109375,129.9492645263672
34,38,68,70,44,55,57,26,30,51,89,105,60,34,26,22,-18.495647430419922,55.182498931884766,25.542770385742188,6.621380805969238,-15.6136474609375,-38.09341049194336,20.37687110900879,-3.330355405807495,-58.986576080322266,-67.07283782958984,-63.280330657958984,-48.19477081298828,159.83517456054688,150.4199981689453,149.79034423828125,135.69801330566406,131.70457458496094,129.8502655029297
30,38,82,68,41,58,56,26,35,73,99,98,59,34,25,23,-18.749008178710938,50.589813232421875,24.934032440185547,6.146272659301758,-15.997720718383789,-38.453773498535156,20.304716110229492,-7.526846408843994,-59.169395446777344,-67.04439544677734,-63.12874984741211,-47.941192626953125,159.61669921875,145.2387237548828,149.3518524169922,135.45632934570312,131.57118225097656,129.7790985107422
33,46,107,67,42,59,60,26,38,86,104,98,60,37,24,22,-18.93766975402832,47.37492370605469,24.53370475769043,5.786290168762207,-16.36972999572754,-38.802490234375,20.317861557006836,-9.943717956542969,-59.20444107055664,-66.9856185913086,-63.040740966796875,-47.807125091552734,159.4169921875,142.04736328125,149.0087432861328,135.25904846191406,131.51148986816406,129.80227661132812
34,48,106,70,40,60,74,24,40,94,97,100,57,37,22,25,-19.175657272338867,43.75535583496094,24.110849380493164,5.398321151733398,-16.852813720703125,-39.21349334716797,20.370786666870117,-12.168209075927734,-59.18828201293945,-66.8808822631836,-62.9994010925293,-47.65974426269531,159.1859893798828,139.00802612304688,148.651611328125,135.025634765625,131.48681640625,129.7919921875
33,49,109,68,38,59,78,25,42,95,98,96,59,37,22,24,-19.619657516479492,37.606964111328125,23.494911193847656,4.817272186279297,-17.4514217376709,-39.862037658691406,20.55008316040039,-14.908788681030273,-59.01267623901367,-66.61409759521484,-62.74248504638672,-47.397945404052734,158.8018035888672,134.74684143066406,148.09646606445312,134.6104278564453,131.27032470703125,129.705078125
32,48,109,54,31,52,81,27,41,98,82,89,59,31,23,23,-19.9499568939209,32.799076080322266,23.15227508544922,4.470563888549805,-17.845073699951172,-40.261619567871094,20.680694580078125,-16.219337463378906,-58.80672836303711,-66.41134643554688,-62.59543991088867,-47.23127365112305,158.54122924804688,131.8693389892578,147.60789489746094,134.25576782226562,131.07626342773438,129.5631866455078
34,51,108,58,33,51,84,25,41,97,76,92,61,30,23,21,-20.168445587158203,26.869993209838867,22.954931259155273,4.269715785980225,-18.083223342895508,-40.51028823852539,20.754467010498047,-17.012569427490234,-58.659114837646484,-66.26322937011719,-62.494468688964844,-47.123443603515625,158.37429809570312,128.91900634765625,147.2630157470703,133.97515869140625,130.90476989746094,129.41958618164062
